RawTimestamp,LocalTime,HR_Original,HR_Buffered,PPG,GSR,Temperature
1743293607013,20:13:27.013,-1,-1,0,0.461982461982462,26.4608428180218
1743293607032,20:13:27.032,-1,-1,0,0.461982461982462,26.4608428180218
1743293607052,20:13:27.052,-1,-1,0,1.47613580449401,26.4608428180218
1743293607071,20:13:27.071,-1,-1,0,1.47613580449401,26.4608428180218
1743293607091,20:13:27.091,-1,-1,0,1.47613580449401,26.4608428180218
1743293607110,20:13:27.110,-1,-1,0,1.47613580449401,26.4608428180218
1743293607130,20:13:27.130,-1,-1,0,1.47613580449401,26.4608428180218
1743293607149,20:13:27.149,-1,-1,0,1.43201745989202,26.4608428180218
1743293607169,20:13:27.169,-1,-1,0,1.43201745989202,26.4608428180218
1743293607188,20:13:27.188,-1,-1,0,1.43201745989202,26.4608428180218
1743293607208,20:13:27.208,-1,-1,0,1.43201745989202,26.4608428180218
1743293607227,20:13:27.227,-1,-1,0,1.43201745989202,26.4608428180218
1743293607247,20:13:27.247,-1,-1,0,1.43076923076923,26.4608428180218
1743293607266,20:13:27.266,-1,-1,0,1.43076923076923,26.4608428180218
1743293607286,20:13:27.286,-1,-1,0,1.43076923076923,26.4608428180218
1743293607305,20:13:27.305,-1,-1,0,1.42930402930403,26.4608428180218
1743293607325,20:13:27.325,-1,-1,0,1.42930402930403,26.4608428180218
1743293607344,20:13:27.344,-1,-1,0,1.42930402930403,26.4608428180218
1743293607364,20:13:27.364,-1,-1,0,1.42930402930403,26.4608428180218
1743293607383,20:13:27.383,-1,-1,0,1.42930402930403,26.4608428180218
1743293607403,20:13:27.403,-1,-1,0,1.42930402930403,26.4608428180218
1743293607422,20:13:27.422,-1,-1,0,1.42930402930403,26.4608428180218
1743293607442,20:13:27.442,-1,-1,0,1.42783882783883,26.4608428180218
1743293607461,20:13:27.461,-1,-1,0,1.42930402930403,26.4608428180218
1743293607481,20:13:27.481,-1,-1,0,1.42930402930403,26.4608428180218
1743293607500,20:13:27.500,-1,-1,0,1.42930402930403,26.4608428180218
1743293607520,20:13:27.520,-1,-1,0,1.42930402930403,26.4608428180218
1743293607539,20:13:27.539,-1,-1,0,1.42930402930403,26.4608428180218
1743293607559,20:13:27.559,-1,-1,0,1.42783882783883,26.4608428180218
1743293607578,20:13:27.578,-1,-1,0,1.42783882783883,26.4608428180218
1743293607598,20:13:27.598,-1,-1,0,1.42783882783883,26.4608428180218
1743293607617,20:13:27.617,-1,-1,0,1.42783882783883,26.4608428180218
1743293607637,20:13:27.637,-1,-1,0,1.42783882783883,26.4608428180218
1743293607656,20:13:27.656,-1,-1,46.1538461538462,1.42783882783883,26.4608428180218
1743293607676,20:13:27.676,-1,-1,379.487179487179,1.42783882783883,26.4608428180218
1743293607695,20:13:27.695,-1,-1,728.937728937729,1.42783882783883,26.4608428180218
1743293607715,20:13:27.715,-1,-1,1016.11721611722,1.42783882783883,26.4608428180218
1743293607734,20:13:27.734,-1,-1,1224.17582417582,1.42783882783883,26.4608428180218
1743293607754,20:13:27.754,-1,-1,1353.11355311355,1.42783882783883,26.4608428180218
1743293607773,20:13:27.773,-1,-1,1440.29304029304,1.42783882783883,26.4608428180218
1743293607793,20:13:27.793,-1,-1,1489.37728937729,1.42783882783883,26.4608428180218
1743293607812,20:13:27.812,-1,-1,1518.68131868132,1.42637362637363,26.4608428180218
1743293607832,20:13:27.832,-1,-1,1531.86813186813,1.42637362637363,26.4608428180218
1743293607851,20:13:27.851,-1,-1,1531.13553113553,1.42637362637363,26.4608428180218
1743293607871,20:13:27.871,-1,-1,1536.99633699634,1.42637362637363,26.4608428180218
1743293607890,20:13:27.890,-1,-1,1535.53113553114,1.42637362637363,26.4608428180218
1743293607910,20:13:27.910,-1,-1,1520.87912087912,1.42637362637363,26.4608428180218
1743293607929,20:13:27.929,-1,-1,1506.95970695971,1.42637362637363,34.836828618194
1743293607949,20:13:27.949,-1,-1,1482.05128205128,1.42637362637363,34.836828618194
1743293607968,20:13:27.968,-1,-1,1454.21245421245,1.42637362637363,34.836828618194
1743293607988,20:13:27.988,-1,-1,1420.51282051282,1.42490842490842,34.836828618194
1743293608007,20:13:28.007,-1,-1,1391.94139194139,1.42490842490842,34.836828618194
1743293608027,20:13:28.027,-1,-1,1372.89377289377,1.42637362637363,34.836828618194
1743293608046,20:13:28.046,-1,-1,1366.30036630037,1.42490842490842,34.836828618194
1743293608066,20:13:28.066,-1,-1,1364.83516483516,1.42490842490842,34.836828618194
1743293608085,20:13:28.085,-1,-1,1355.31135531136,1.42490842490842,34.836828618194
1743293608105,20:13:28.105,-1,-1,1342.12454212454,1.42490842490842,34.836828618194
1743293608124,20:13:28.124,-1,-1,1316.48351648352,1.42490842490842,34.836828618194
1743293608144,20:13:28.144,-1,-1,1297.4358974359,1.42344322344322,34.836828618194
1743293608163,20:13:28.163,-1,-1,1288.64468864469,1.42490842490842,34.836828618194
1743293608183,20:13:28.183,-1,-1,1290.10989010989,1.42490842490842,34.836828618194
1743293608202,20:13:28.202,-1,-1,1284.24908424908,1.42344322344322,34.836828618194
1743293608222,20:13:28.222,-1,-1,1275.45787545788,1.42344322344322,34.836828618194
1743293608241,20:13:28.241,-1,-1,1259.34065934066,1.42344322344322,34.836828618194
1743293608261,20:13:28.261,-1,-1,1241.75824175824,1.42344322344322,34.836828618194
1743293608280,20:13:28.280,-1,-1,1230.03663003663,1.42344322344322,34.836828618194
1743293608300,20:13:28.300,-1,-1,1214.65201465201,1.42344322344322,34.836828618194
1743293608319,20:13:28.319,-1,-1,1203.663003663,1.42344322344322,34.836828618194
1743293608339,20:13:28.339,-1,-1,1185.34798534799,1.42197802197802,34.836828618194
1743293608358,20:13:28.358,-1,-1,1163.36996336996,1.42344322344322,34.836828618194
1743293608378,20:13:28.378,-1,-1,1150.91575091575,1.42197802197802,34.836828618194
1743293608397,20:13:28.397,-1,-1,1147.25274725275,1.42197802197802,34.836828618194
1743293608417,20:13:28.417,-1,-1,1152.38095238095,1.42197802197802,34.836828618194
1743293608436,20:13:28.436,-1,-1,1177.28937728938,1.42197802197802,34.836828618194
1743293608456,20:13:28.456,-1,-1,1190.47619047619,1.42197802197802,34.836828618194
1743293608475,20:13:28.475,-1,-1,1204.3956043956,1.42197802197802,34.836828618194
1743293608495,20:13:28.495,-1,-1,1208.79120879121,1.42051282051282,34.836828618194
1743293608514,20:13:28.514,-1,-1,1202.1978021978,1.42051282051282,34.836828618194
1743293608534,20:13:28.534,-1,-1,1192.67399267399,1.42051282051282,34.836828618194
1743293608553,20:13:28.553,-1,-1,1208.79120879121,1.42051282051282,34.836828618194
1743293608573,20:13:28.573,-1,-1,1260.07326007326,1.42051282051282,34.836828618194
1743293608592,20:13:28.592,-1,-1,1326.00732600733,1.42051282051282,34.836828618194
1743293608612,20:13:28.612,-1,-1,1382.41758241758,1.42051282051282,34.836828618194
1743293608631,20:13:28.631,-1,-1,1432.96703296703,1.42051282051282,34.836828618194
1743293608651,20:13:28.651,-1,-1,1471.79487179487,1.41904761904762,34.836828618194
1743293608670,20:13:28.670,-1,-1,1504.7619047619,1.41904761904762,34.836828618194
1743293608690,20:13:28.690,-1,-1,1526.73992673993,1.41904761904762,34.836828618194
1743293608709,20:13:28.709,-1,-1,1550.91575091575,1.41904761904762,34.836828618194
1743293608729,20:13:28.729,-1,-1,1561.90476190476,1.41904761904762,34.836828618194
1743293608748,20:13:28.748,-1,-1,1548.71794871795,1.41904761904762,34.836828618194
1743293608768,20:13:28.768,-1,-1,1533.33333333333,1.41758241758242,34.836828618194
1743293608787,20:13:28.787,-1,-1,1512.82051282051,1.41758241758242,34.836828618194
1743293608807,20:13:28.807,-1,-1,1476.19047619048,1.41758241758242,34.836828618194
1743293608826,20:13:28.826,-1,-1,1441.75824175824,1.41758241758242,34.836828618194
1743293608846,20:13:28.846,-1,-1,1411.72161172161,1.41758241758242,34.836828618194
1743293608865,20:13:28.865,-1,-1,1398.5347985348,1.41611721611722,34.836828618194
1743293608885,20:13:28.885,-1,-1,1402.9304029304,1.41758241758242,34.836828618194
1743293608904,20:13:28.904,-1,-1,1380.21978021978,1.41611721611722,34.836828618194
1743293608924,20:13:28.924,-1,-1,1358.97435897436,1.41611721611722,34.866838698159
1743293608943,20:13:28.943,-1,-1,1352.38095238095,1.41611721611722,34.866838698159
1743293608963,20:13:28.963,-1,-1,1336.26373626374,1.41611721611722,34.866838698159
1743293608982,20:13:28.982,-1,-1,1315.01831501831,1.41465201465201,34.866838698159
1743293609002,20:13:29.002,-1,-1,1293.04029304029,1.41465201465201,34.866838698159
1743293609021,20:13:29.021,-1,-1,1268.86446886447,1.41465201465201,34.866838698159
1743293609041,20:13:29.041,-1,-1,1251.28205128205,1.41318681318681,34.866838698159
1743293609060,20:13:29.060,-1,-1,1252.74725274725,1.41318681318681,34.866838698159
1743293609080,20:13:29.080,-1,-1,1254.94505494505,1.41318681318681,34.866838698159
1743293609099,20:13:29.099,-1,-1,1249.08424908425,1.41172161172161,34.866838698159
1743293609119,20:13:29.119,-1,-1,1232.96703296703,1.41172161172161,34.866838698159
1743293609138,20:13:29.138,-1,-1,1225.64102564103,1.41172161172161,34.866838698159
1743293609158,20:13:29.158,-1,-1,1221.97802197802,1.41025641025641,34.866838698159
1743293609177,20:13:29.177,-1,-1,1219.78021978022,1.41172161172161,34.866838698159
1743293609197,20:13:29.197,-1,-1,1221.24542124542,1.41025641025641,34.866838698159
1743293609216,20:13:29.216,-1,-1,1216.11721611722,1.41025641025641,34.866838698159
1743293609236,20:13:29.236,-1,-1,1200.7326007326,1.41025641025641,34.866838698159
1743293609255,20:13:29.255,-1,-1,1195.6043956044,1.41025641025641,34.866838698159
1743293609275,20:13:29.275,-1,-1,1188.27838827839,1.41025641025641,34.866838698159
1743293609294,20:13:29.294,-1,-1,1183.15018315018,1.41025641025641,34.866838698159
1743293609314,20:13:29.314,-1,-1,1190.47619047619,1.41025641025641,34.866838698159
1743293609333,20:13:29.333,-1,-1,1203.663003663,1.41025641025641,34.866838698159
1743293609353,20:13:29.353,-1,-1,1211.72161172161,1.41025641025641,34.866838698159
1743293609372,20:13:29.372,-1,-1,1213.18681318681,1.40879120879121,34.866838698159
1743293609392,20:13:29.392,-1,-1,1201.4652014652,1.41025641025641,34.866838698159
1743293609411,20:13:29.411,-1,-1,1194.87179487179,1.40879120879121,34.866838698159
1743293609431,20:13:29.431,-1,-1,1191.94139194139,1.40879120879121,34.866838698159
1743293609450,20:13:29.450,-1,-1,1199.2673992674,1.40879120879121,34.866838698159
1743293609470,20:13:29.470,-1,-1,1238.09523809524,1.40732600732601,34.866838698159
1743293609489,20:13:29.489,-1,-1,1293.77289377289,1.40732600732601,34.866838698159
1743293609509,20:13:29.509,-1,-1,1364.10256410256,1.40732600732601,34.866838698159
1743293609528,20:13:29.528,-1,-1,1430.76923076923,1.40732600732601,34.866838698159
1743293609548,20:13:29.548,-1,-1,1465.93406593407,1.40732600732601,34.866838698159
1743293609567,20:13:29.567,-1,-1,1481.31868131868,1.40586080586081,34.866838698159
1743293609587,20:13:29.587,-1,-1,1487.91208791209,1.40586080586081,34.866838698159
1743293609606,20:13:29.606,-1,-1,1492.30769230769,1.40586080586081,34.866838698159
1743293609626,20:13:29.626,-1,-1,1490.10989010989,1.40586080586081,34.866838698159
1743293609645,20:13:29.645,-1,-1,1482.78388278388,1.40586080586081,34.866838698159
1743293609665,20:13:29.665,-1,-1,1479.12087912088,1.40586080586081,34.866838698159
1743293609684,20:13:29.684,-1,-1,1476.92307692308,1.40586080586081,34.866838698159
1743293609704,20:13:29.704,-1,-1,1471.06227106227,1.4043956043956,34.866838698159
1743293609723,20:13:29.723,-1,-1,1445.42124542125,1.4043956043956,34.866838698159
1743293609743,20:13:29.743,-1,-1,1417.58241758242,1.4043956043956,34.866838698159
1743293609762,20:13:29.762,-1,-1,1400.7326007326,1.4043956043956,34.866838698159
1743293609782,20:13:29.782,-1,-1,1380.21978021978,1.4043956043956,34.866838698159
1743293609801,20:13:29.801,-1,-1,1370.69597069597,1.4029304029304,34.866838698159
1743293609821,20:13:29.821,-1,-1,1367.76556776557,1.4029304029304,34.866838698159
1743293609840,20:13:29.840,-1,-1,1358.24175824176,1.4029304029304,34.866838698159
1743293609860,20:13:29.860,-1,-1,1336.26373626374,1.4029304029304,34.866838698159
1743293609879,20:13:29.879,-1,-1,1321.61172161172,1.4029304029304,34.866838698159
1743293609899,20:13:29.899,-1,-1,1317.21611721612,1.4014652014652,34.866838698159
1743293609918,20:13:29.918,-1,-1,1308.42490842491,1.4014652014652,34.8718403577805
1743293609938,20:13:29.938,-1,-1,1290.10989010989,1.4014652014652,34.8718403577805
1743293609957,20:13:29.957,-1,-1,1270.32967032967,1.4014652014652,34.8718403577805
1743293609977,20:13:29.977,-1,-1,1260.80586080586,1.4014652014652,34.8718403577805
1743293609996,20:13:29.996,-1,-1,1254.21245421245,1.4,34.8718403577805
1743293610016,20:13:30.016,-1,-1,1240.29304029304,1.4,34.8718403577805
1743293610035,20:13:30.035,-1,-1,1234.43223443223,1.4,34.8718403577805
1743293610055,20:13:30.055,-1,-1,1227.83882783883,1.4,34.8718403577805
1743293610074,20:13:30.074,-1,-1,1229.30402930403,1.4,34.8718403577805
1743293610094,20:13:30.094,-1,-1,1224.90842490842,1.4,34.8718403577805
1743293610113,20:13:30.113,-1,-1,1216.84981684982,1.3985347985348,34.8718403577805
1743293610133,20:13:30.133,-1,-1,1226.37362637363,1.3985347985348,34.8718403577805
1743293610152,20:13:30.152,-1,-1,1216.11721611722,1.3985347985348,34.8718403577805
1743293610172,20:13:30.172,-1,-1,1204.3956043956,1.3985347985348,34.8718403577805
1743293610191,20:13:30.191,-1,-1,1195.6043956044,1.3970695970696,34.8718403577805
1743293610211,20:13:30.211,-1,-1,1200,1.3970695970696,34.8718403577805
1743293610230,20:13:30.230,-1,-1,1210.25641025641,1.3970695970696,34.8718403577805
1743293610250,20:13:30.250,-1,-1,1208.05860805861,1.3970695970696,34.8718403577805
1743293610269,20:13:30.269,-1,-1,1200.7326007326,1.3956043956044,34.8718403577805
1743293610289,20:13:30.289,-1,-1,1200,1.3956043956044,34.8718403577805
1743293610308,20:13:30.308,-1,-1,1199.2673992674,1.3956043956044,34.8718403577805
1743293610328,20:13:30.328,-1,-1,1195.6043956044,1.3956043956044,34.8718403577805
1743293610347,20:13:30.347,-1,-1,1211.72161172161,1.3956043956044,34.8718403577805
1743293610367,20:13:30.367,-1,-1,1268.13186813187,1.3956043956044,34.8718403577805
1743293610386,20:13:30.386,-1,-1,1337.72893772894,1.3956043956044,34.8718403577805
1743293610406,20:13:30.406,-1,-1,1413.18681318681,1.39413919413919,34.8718403577805
1743293610425,20:13:30.425,-1,-1,1473.26007326007,1.39413919413919,34.8718403577805
1743293610445,20:13:30.445,-1,-1,1507.69230769231,1.39413919413919,34.8718403577805
1743293610464,20:13:30.464,-1,-1,1512.08791208791,1.39267399267399,34.8718403577805
1743293610484,20:13:30.484,-1,-1,1498.1684981685,1.39413919413919,34.8718403577805
1743293610503,20:13:30.503,-1,-1,1495.2380952381,1.39267399267399,34.8718403577805
1743293610523,20:13:30.523,-1,-1,1495.9706959707,1.39267399267399,34.8718403577805
1743293610542,20:13:30.542,-1,-1,1489.37728937729,1.39267399267399,34.8718403577805
1743293610562,20:13:30.562,-1,-1,1493.04029304029,1.39267399267399,34.8718403577805
1743293610581,20:13:30.581,-1,-1,1478.38827838828,1.39267399267399,34.8718403577805
1743293610601,20:13:30.601,-1,-1,1441.75824175824,1.39267399267399,34.8718403577805
1743293610620,20:13:30.620,-1,-1,1412.45421245421,1.39120879120879,34.8718403577805
1743293610640,20:13:30.640,-1,-1,1384.61538461538,1.39120879120879,34.8718403577805
1743293610659,20:13:30.659,-1,-1,1350.18315018315,1.39120879120879,34.8718403577805
1743293610679,20:13:30.679,-1,-1,1328.93772893773,1.38974358974359,34.8718403577805
1743293610698,20:13:30.698,-1,-1,1328.93772893773,1.38974358974359,34.8718403577805
1743293610718,20:13:30.718,-1,-1,1345.05494505494,1.38974358974359,34.8718403577805
1743293610737,20:13:30.737,-1,-1,1351.64835164835,1.38974358974359,34.8718403577805
1743293610757,20:13:30.757,-1,-1,1347.98534798535,1.38974358974359,34.8718403577805
1743293610776,20:13:30.776,-1,-1,1343.58974358974,1.38827838827839,34.8718403577805
1743293610796,20:13:30.796,-1,-1,1338.46153846154,1.38827838827839,34.8718403577805
1743293610815,20:13:30.815,-1,-1,1329.67032967033,1.38827838827839,34.8718403577805
1743293610835,20:13:30.835,-1,-1,1322.34432234432,1.38827838827839,34.8718403577805
1743293610854,20:13:30.854,-1,-1,1312.82051282051,1.38681318681319,34.8718403577805
1743293610874,20:13:30.874,-1,-1,1298.9010989011,1.38681318681319,34.8718403577805
1743293610893,20:13:30.893,-1,-1,1284.24908424908,1.38681318681319,34.8718403577805
1743293610913,20:13:30.913,-1,-1,1269.59706959707,1.38681318681319,34.8818436595611
1743293610932,20:13:30.932,-1,-1,1254.21245421245,1.38681318681319,34.8818436595611
1743293610952,20:13:30.952,-1,-1,1249.81684981685,1.37973137973138,34.8818436595611
1743293610971,20:13:30.971,-1,-1,1246.15384615385,1.37973137973138,34.8818436595611
1743293610991,20:13:30.991,-1,-1,1237.36263736264,1.37973137973138,34.8818436595611
1743293611010,20:13:31.010,-1,-1,1230.03663003663,1.37973137973138,34.8818436595611
1743293611030,20:13:31.030,-1,-1,1227.10622710623,1.37928737928738,34.8818436595611
1743293611049,20:13:31.049,-1,-1,1222.71062271062,1.37884337884338,34.8818436595611
1743293611069,20:13:31.069,-1,-1,1223.44322344322,1.37884337884338,34.8818436595611
1743293611088,20:13:31.088,-1,-1,1216.11721611722,1.37884337884338,34.8818436595611
1743293611108,20:13:31.108,-1,-1,1216.84981684982,1.37839937839938,34.8818436595611
1743293611127,20:13:31.127,-1,-1,1231.50183150183,1.37884337884338,34.8818436595611
1743293611147,20:13:31.147,-1,-1,1273.99267399267,1.37839937839938,34.8818436595611
1743293611166,20:13:31.166,-1,-1,1339.19413919414,1.37839937839938,34.8818436595611
1743293611186,20:13:31.186,-1,-1,1424.17582417582,1.37795537795538,34.8818436595611
1743293611205,20:13:31.205,-1,-1,1505.49450549451,1.37795537795538,34.8818436595611
1743293611225,20:13:31.225,-1,-1,1551.64835164835,1.37706737706738,34.8818436595611
1743293611244,20:13:31.244,-1,-1,1584.61538461538,1.37706737706738,34.8818436595611
1743293611264,20:13:31.264,-1,-1,1592.67399267399,1.37706737706738,34.8818436595611
1743293611283,20:13:31.283,-1,-1,1590.47619047619,1.37662337662338,34.8818436595611
1743293611303,20:13:31.303,-1,-1,1594.13919413919,1.37617937617938,34.8818436595611
1743293611322,20:13:31.322,-1,-1,1589.74358974359,1.37617937617938,34.8818436595611
1743293611342,20:13:31.342,-1,-1,1580.21978021978,1.37573537573538,34.8818436595611
1743293611361,20:13:31.361,-1,-1,1563.36996336996,1.37573537573538,34.8818436595611
1743293611381,20:13:31.381,-1,-1,1531.13553113553,1.37573537573538,34.8818436595611
1743293611400,20:13:31.400,-1,-1,1478.38827838828,1.37529137529138,34.8818436595611
1743293611420,20:13:31.420,-1,-1,1444.68864468864,1.37529137529138,34.8818436595611
1743293611439,20:13:31.439,-1,-1,1424.17582417582,1.37484737484737,34.8818436595611
1743293611459,20:13:31.459,-1,-1,1411.72161172161,1.37440337440337,34.8818436595611
1743293611478,20:13:31.478,-1,-1,1403.663003663,1.37484737484737,34.8818436595611
1743293611498,20:13:31.498,-1,-1,1397.0695970696,1.37440337440337,34.8818436595611
1743293611517,20:13:31.517,-1,-1,1402.9304029304,1.37440337440337,34.8818436595611
1743293611537,20:13:31.537,-1,-1,1407.32600732601,1.37351537351537,34.8818436595611
1743293611556,20:13:31.556,-1,-1,1400.7326007326,1.37351537351537,34.8818436595611
1743293611576,20:13:31.576,-1,-1,1391.20879120879,1.37307137307137,34.8818436595611
1743293611595,20:13:31.595,-1,-1,1375.09157509157,1.37262737262737,34.8818436595611
1743293611615,20:13:31.615,-1,-1,1365.56776556777,1.37218337218337,34.8818436595611
1743293611634,20:13:31.634,-1,-1,1337.72893772894,1.37173937173937,34.8818436595611
1743293611654,20:13:31.654,-1,-1,1317.94871794872,1.37173937173937,34.8818436595611
1743293611673,20:13:31.673,-1,-1,1306.95970695971,1.37129537129537,34.8818436595611
1743293611693,20:13:31.693,-1,-1,1298.1684981685,1.37129537129537,34.8818436595611
1743293611712,20:13:31.712,-1,-1,1298.9010989011,1.37085137085137,34.8818436595611
1743293611732,20:13:31.732,-1,-1,1293.04029304029,1.37040737040737,34.8818436595611
1743293611751,20:13:31.751,-1,-1,1287.91208791209,1.36996336996337,34.8818436595611
1743293611771,20:13:31.771,-1,-1,1279.12087912088,1.36996336996337,34.8818436595611
1743293611790,20:13:31.790,-1,-1,1259.34065934066,1.36951936951937,34.8818436595611
1743293611810,20:13:31.810,-1,-1,1243.22344322344,1.36907536907537,34.8818436595611
1743293611829,20:13:31.829,-1,-1,1232.96703296703,1.36907536907537,34.8818436595611
1743293611849,20:13:31.849,-1,-1,1243.95604395604,1.36863136863137,34.8818436595611
1743293611868,20:13:31.868,-1,-1,1245.42124542125,1.36818736818737,34.8818436595611
1743293611888,20:13:31.888,-1,-1,1239.56043956044,1.36818736818737,34.8818436595611
1743293611907,20:13:31.907,-1,-1,1230.03663003663,1.36818736818737,34.9068518121494
1743293611927,20:13:31.927,-1,-1,1235.16483516484,1.36729936729937,34.9068518121494
1743293611946,20:13:31.946,-1,-1,1282.78388278388,1.36729936729937,34.9068518121494
1743293611966,20:13:31.966,-1,-1,1361.90476190476,1.36685536685537,34.9068518121494
1743293611985,20:13:31.985,-1,-1,1464.46886446886,1.36685536685537,34.9068518121494
1743293612005,20:13:32.005,-1,-1,1553.11355311355,1.36641136641137,34.9068518121494
1743293612024,20:13:32.024,-1,-1,1614.65201465201,1.36641136641137,34.9068518121494
1743293612044,20:13:32.044,-1,-1,1652.01465201465,1.36641136641137,34.9068518121494
1743293612063,20:13:32.063,-1,-1,1684.98168498168,1.36641136641137,34.9068518121494
1743293612083,20:13:32.083,-1,-1,1713.55311355311,1.36596736596737,34.9068518121494
1743293612102,20:13:32.102,-1,-1,1735.53113553114,1.36552336552337,34.9068518121494
1743293612122,20:13:32.122,-1,-1,1727.47252747253,1.36507936507937,34.9068518121494
1743293612141,20:13:32.141,-1,-1,1705.49450549451,1.36463536463536,34.9068518121494
1743293612161,20:13:32.161,-1,-1,1685.71428571429,1.36463536463536,34.9068518121494
1743293612180,20:13:32.180,-1,-1,1668.13186813187,1.36419136419136,34.9068518121494
1743293612200,20:13:32.200,-1,-1,1647.61904761905,1.36419136419136,34.9068518121494
1743293612219,20:13:32.219,-1,-1,1610.25641025641,1.36374736374736,34.9068518121494
1743293612239,20:13:32.239,-1,-1,1569.23076923077,1.36374736374736,34.9068518121494
1743293612258,20:13:32.258,-1,-1,1539.92673992674,1.36374736374736,34.9068518121494
1743293612278,20:13:32.278,-1,-1,1512.08791208791,1.36330336330336,34.9068518121494
1743293612297,20:13:32.297,-1,-1,1482.78388278388,1.36330336330336,34.9068518121494
1743293612317,20:13:32.317,-1,-1,1474.72527472527,1.36285936285936,34.9068518121494
1743293612336,20:13:32.336,-1,-1,1488.64468864469,1.36241536241536,34.9068518121494
1743293612356,20:13:32.356,-1,-1,1483.51648351648,1.36197136197136,34.9068518121494
1743293612375,20:13:32.375,-1,-1,1462.27106227106,1.36152736152736,34.9068518121494
1743293612395,20:13:32.395,-1,-1,1434.43223443223,1.36152736152736,34.9068518121494
1743293612414,20:13:32.414,-1,-1,1405.86080586081,1.36152736152736,34.9068518121494
1743293612434,20:13:32.434,-1,-1,1383.88278388278,1.36152736152736,34.9068518121494
1743293612453,20:13:32.453,-1,-1,1350.91575091575,1.36108336108336,34.9068518121494
1743293612473,20:13:32.473,-1,-1,1323.07692307692,1.36108336108336,34.9068518121494
1743293612492,20:13:32.492,-1,-1,1306.95970695971,1.36108336108336,34.9068518121494
1743293612512,20:13:32.512,-1,-1,1296.7032967033,1.36108336108336,34.9068518121494
1743293612531,20:13:32.531,-1,-1,1276.92307692308,1.36108336108336,34.9068518121494
1743293612551,20:13:32.551,-1,-1,1273.99267399267,1.36063936063936,34.9068518121494
1743293612570,20:13:32.570,-1,-1,1282.05128205128,1.36063936063936,34.9068518121494
1743293612590,20:13:32.590,-1,-1,1276.92307692308,1.36063936063936,34.9068518121494
1743293612609,20:13:32.609,-1,-1,1269.59706959707,1.36063936063936,34.9068518121494
1743293612629,20:13:32.629,-1,-1,1262.27106227106,1.36063936063936,34.9068518121494
1743293612648,20:13:32.648,-1,-1,1268.86446886447,1.36063936063936,34.9068518121494
1743293612668,20:13:32.668,-1,-1,1266.66666666667,1.36063936063936,34.9068518121494
1743293612687,20:13:32.687,-1,-1,1260.07326007326,1.36019536019536,34.9068518121494
1743293612707,20:13:32.707,-1,-1,1260.80586080586,1.36019536019536,34.9068518121494
1743293612726,20:13:32.726,-1,-1,1249.08424908425,1.35975135975136,34.9068518121494
1743293612746,20:13:32.746,-1,-1,1232.96703296703,1.35975135975136,34.9068518121494
1743293612765,20:13:32.765,-1,-1,1241.75824175824,1.35975135975136,34.9068518121494
1743293612785,20:13:32.785,-1,-1,1311.35531135531,1.35975135975136,34.9068518121494
1743293612804,20:13:32.804,-1,-1,1428.57142857143,1.35930735930736,34.9068518121494
1743293612824,20:13:32.824,-1,-1,1552.38095238095,1.35886335886336,34.9068518121494
1743293612843,20:13:32.843,-1,-1,1648.35164835165,1.35886335886336,34.9068518121494
1743293612863,20:13:32.863,-1,-1,1726.00732600733,1.35841935841936,34.9068518121494
1743293612882,20:13:32.882,-1,-1,1792.67399267399,1.35841935841936,34.9068518121494
1743293612902,20:13:32.902,-1,-1,1832.23443223443,1.35753135753136,34.9118534252048
1743293612921,20:13:32.921,-1,-1,1847.61904761905,1.35708735708736,34.9118534252048
1743293612941,20:13:32.941,-1,-1,1853.47985347985,1.35708735708736,34.9118534252048
1743293612960,20:13:32.960,-1,-1,1851.28205128205,1.35708735708736,34.9118534252048
1743293612980,20:13:32.980,-1,-1,1832.96703296703,1.35664335664336,34.9118534252048
1743293612999,20:13:32.999,-1,-1,1802.1978021978,1.35664335664336,34.9118534252048
1743293613019,20:13:33.019,-1,-1,1765.56776556777,1.35664335664336,34.9118534252048
1743293613038,20:13:33.038,-1,-1,1723.80952380952,1.35664335664336,34.9118534252048
1743293613058,20:13:33.058,-1,-1,1663.00366300366,1.35619935619936,34.9118534252048
1743293613077,20:13:33.077,-1,-1,1609.52380952381,1.35575535575536,34.9118534252048
1743293613097,20:13:33.097,-1,-1,1568.49816849817,1.35575535575536,34.9118534252048
1743293613116,20:13:33.116,-1,-1,1541.39194139194,1.35486735486735,34.9118534252048
1743293613136,20:13:33.136,-1,-1,1526.73992673993,1.35486735486735,34.9118534252048
1743293613155,20:13:33.155,-1,-1,1505.49450549451,1.35486735486735,34.9118534252048
1743293613175,20:13:33.175,-1,-1,1492.30769230769,1.35486735486735,34.9118534252048
1743293613194,20:13:33.194,-1,-1,1493.04029304029,1.35397935397935,34.9118534252048
1743293613214,20:13:33.214,-1,-1,1483.51648351648,1.35397935397935,34.9118534252048
1743293613233,20:13:33.233,-1,-1,1454.21245421245,1.35397935397935,34.9118534252048
1743293613253,20:13:33.253,-1,-1,1429.30402930403,1.35397935397935,34.9118534252048
1743293613272,20:13:33.272,-1,-1,1403.663003663,1.35353535353535,34.9118534252048
1743293613292,20:13:33.292,-1,-1,1386.81318681319,1.35309135309135,34.9118534252048
1743293613311,20:13:33.311,-1,-1,1370.69597069597,1.35264735264735,34.9118534252048
1743293613331,20:13:33.331,-1,-1,1357.50915750916,1.35309135309135,34.9118534252048
1743293613350,20:13:33.350,-1,-1,1334.79853479853,1.35220335220335,34.9118534252048
1743293613370,20:13:33.370,-1,-1,1306.95970695971,1.35220335220335,34.9118534252048
1743293613389,20:13:33.389,-1,-1,1286.44688644689,1.35131535131535,34.9118534252048
1743293613409,20:13:33.409,-1,-1,1261.53846153846,1.35131535131535,34.9118534252048
1743293613428,20:13:33.428,-1,-1,1246.88644688645,1.35131535131535,34.9118534252048
1743293613448,20:13:33.448,-1,-1,1241.75824175824,1.35087135087135,34.9118534252048
1743293613467,20:13:33.467,-1,-1,1243.22344322344,1.35042735042735,34.9118534252048
1743293613487,20:13:33.487,-1,-1,1259.34065934066,1.35042735042735,34.9118534252048
1743293613506,20:13:33.506,-1,-1,1275.45787545788,1.34953934953935,34.9118534252048
1743293613526,20:13:33.526,-1,-1,1273.99267399267,1.34953934953935,34.9118534252048
1743293613545,20:13:33.545,-1,-1,1254.21245421245,1.34953934953935,34.9118534252048
1743293613565,20:13:33.565,-1,-1,1224.17582417582,1.34909534909535,34.9118534252048
1743293613584,20:13:33.584,-1,-1,1202.9304029304,1.34909534909535,34.9118534252048
1743293613604,20:13:33.604,-1,-1,1200.7326007326,1.34865134865135,34.9118534252048
1743293613623,20:13:33.623,-1,-1,1222.71062271062,1.34820734820735,34.9118534252048
1743293613643,20:13:33.643,-1,-1,1278.38827838828,1.34820734820735,34.9118534252048
1743293613662,20:13:33.662,-1,-1,1397.8021978022,1.34776334776335,34.9118534252048
1743293613682,20:13:33.682,-1,-1,1553.84615384615,1.34776334776335,34.9118534252048
1743293613701,20:13:33.701,-1,-1,1686.44688644689,1.34731934731935,34.9118534252048
1743293613721,20:13:33.721,-1,-1,1787.54578754579,1.34687534687535,34.9118534252048
1743293613740,20:13:33.740,-1,-1,1860.80586080586,1.34687534687535,34.9118534252048
1743293613760,20:13:33.760,-1,-1,1890.84249084249,1.34687534687535,34.9118534252048
1743293613779,20:13:33.779,-1,-1,1906.22710622711,1.34598734598735,34.9118534252048
1743293613799,20:13:33.799,-1,-1,1908.42490842491,1.34598734598735,34.9118534252048
1743293613818,20:13:33.818,-1,-1,1906.95970695971,1.34554334554335,34.9118534252048
1743293613838,20:13:33.838,-1,-1,1883.51648351648,1.34509934509935,34.9118534252048
1743293613857,20:13:33.857,-1,-1,1848.35164835165,1.34554334554335,34.9118534252048
1743293613877,20:13:33.877,-1,-1,1795.6043956044,1.34554334554335,34.9118534252048
1743293613896,20:13:33.896,-1,-1,1734.06593406593,1.34465534465534,34.93686140317
1743293613916,20:13:33.916,-1,-1,1683.51648351648,1.34465534465534,34.93686140317
1743293613935,20:13:33.935,-1,-1,1648.35164835165,1.34421134421134,34.93686140317
1743293613955,20:13:33.955,-1,-1,1608.05860805861,1.34421134421134,34.93686140317
1743293613974,20:13:33.974,-1,-1,1564.10256410256,1.34376734376734,34.93686140317
1743293613994,20:13:33.994,-1,-1,1542.85714285714,1.34376734376734,34.93686140317
1743293614013,20:13:34.013,-1,-1,1532.60073260073,1.34332334332334,34.93686140317
1743293614033,20:13:34.033,-1,-1,1510.62271062271,1.34332334332334,34.93686140317
1743293614052,20:13:34.052,-1,-1,1485.71428571429,1.34287934287934,34.93686140317
1743293614072,20:13:34.072,-1,-1,1465.93406593407,1.34243534243534,34.93686140317
1743293614091,20:13:34.091,-1,-1,1435.16483516484,1.34199134199134,34.93686140317
1743293614111,20:13:34.111,-1,-1,1406.59340659341,1.34110334110334,34.93686140317
1743293614130,20:13:34.130,-1,-1,1383.88278388278,1.34154734154734,34.93686140317
1743293614150,20:13:34.150,-1,-1,1360.43956043956,1.34110334110334,34.93686140317
1743293614169,20:13:34.169,-1,-1,1341.39194139194,1.34110334110334,34.93686140317
1743293614189,20:13:34.189,-1,-1,1322.34432234432,1.34110334110334,34.93686140317
1743293614208,20:13:34.208,-1,-1,1304.7619047619,1.34065934065934,34.93686140317
1743293614228,20:13:34.228,-1,-1,1287.17948717949,1.34065934065934,34.93686140317
1743293614247,20:13:34.247,-1,-1,1268.13186813187,1.34065934065934,34.93686140317
1743293614267,20:13:34.267,-1,-1,1254.21245421245,1.34065934065934,34.93686140317
1743293614286,20:13:34.286,-1,-1,1237.36263736264,1.33977133977134,34.93686140317
1743293614306,20:13:34.306,-1,-1,1232.96703296703,1.33932733932734,34.93686140317
1743293614325,20:13:34.325,-1,-1,1222.71062271062,1.33932733932734,34.93686140317
1743293614345,20:13:34.345,-1,-1,1200,1.33932733932734,34.93686140317
1743293614364,20:13:34.364,-1,-1,1184.61538461538,1.33888333888334,34.93686140317
1743293614384,20:13:34.384,-1,-1,1186.08058608059,1.33799533799534,34.93686140317
1743293614403,20:13:34.403,-1,-1,1178.02197802198,1.33799533799534,34.93686140317
1743293614423,20:13:34.423,67,-1,1175.09157509158,1.33755133755134,34.93686140317
1743293614442,20:13:34.442,67,-1,1182.41758241758,1.33710733710734,34.93686140317
1743293614462,20:13:34.462,67,-1,1174.35897435897,1.33710733710734,34.93686140317
1743293614481,20:13:34.481,67,-1,1164.83516483516,1.33666333666334,34.93686140317
1743293614501,20:13:34.501,67,-1,1183.88278388278,1.33621933621934,34.93686140317
1743293614520,20:13:34.520,67,-1,1247.61904761905,1.33621933621934,34.93686140317
1743293614540,20:13:34.540,67,-1,1358.97435897436,1.33621933621934,34.93686140317
1743293614559,20:13:34.559,67,-1,1520.87912087912,1.33577533577534,34.93686140317
1743293614579,20:13:34.579,67,-1,1680.58608058608,1.33577533577534,34.93686140317
1743293614598,20:13:34.598,67,-1,1790.47619047619,1.33533133533134,34.93686140317
1743293614618,20:13:34.618,67,-1,1853.47985347985,1.33488733488733,34.93686140317
1743293614637,20:13:34.637,67,-1,1876.19047619048,1.33444333444333,34.93686140317
1743293614657,20:13:34.657,67,-1,1881.31868131868,1.33399933399933,34.93686140317
1743293614676,20:13:34.676,67,-1,1873.26007326007,1.33399933399933,34.93686140317
1743293614696,20:13:34.696,67,-1,1858.60805860806,1.33399933399933,34.93686140317
1743293614715,20:13:34.715,67,-1,1820.51282051282,1.33355533355533,34.93686140317
1743293614735,20:13:34.735,67,-1,1780.21978021978,1.33311133311133,34.93686140317
1743293614754,20:13:34.754,67,-1,1727.47252747253,1.33311133311133,34.93686140317
1743293614774,20:13:34.774,67,-1,1665.20146520146,1.33266733266733,34.93686140317
1743293614793,20:13:34.793,67,-1,1612.45421245421,1.33266733266733,34.93686140317
1743293614813,20:13:34.813,67,-1,1564.10256410256,1.33311133311133,34.93686140317
1743293614832,20:13:34.832,67,-1,1528.20512820513,1.33266733266733,34.93686140317
1743293614852,20:13:34.852,67,-1,1495.9706959707,1.33222333222333,34.93686140317
1743293614871,20:13:34.871,67,-1,1470.32967032967,1.33177933177933,34.93686140317
1743293614891,20:13:34.891,67,-1,1446.88644688645,1.33177933177933,34.9268582294462
1743293614910,20:13:34.910,67,-1,1421.24542124542,1.33177933177933,34.9268582294462
1743293614930,20:13:34.930,67,-1,1412.45421245421,1.33133533133533,34.9268582294462
1743293614949,20:13:34.949,67,-1,1410.25641025641,1.33133533133533,34.9268582294462
1743293614969,20:13:34.969,67,-1,1401.4652014652,1.33089133089133,34.9268582294462
1743293614988,20:13:34.988,67,-1,1381.68498168498,1.33044733044733,34.9268582294462
1743293615008,20:13:35.008,67,-1,1335.53113553114,1.33044733044733,34.9268582294462
1743293615028,20:13:35.027,67,-1,1290.10989010989,1.33000333000333,34.9268582294462
1743293615047,20:13:35.047,67,-1,1268.13186813187,1.33000333000333,34.9268582294462
1743293615067,20:13:35.066,67,-1,1249.08424908425,1.32955932955933,34.9268582294462
1743293615086,20:13:35.086,67,-1,1240.29304029304,1.32955932955933,34.9268582294462
1743293615106,20:13:35.105,67,-1,1236.63003663004,1.32911532911533,34.9268582294462
1743293615125,20:13:35.125,67,-1,1224.17582417582,1.32867132867133,34.9268582294462
1743293615145,20:13:35.144,67,-1,1229.30402930403,1.32822732822733,34.9268582294462
1743293615164,20:13:35.164,67,-1,1227.10622710623,1.32822732822733,34.9268582294462
1743293615184,20:13:35.184,67,-1,1216.84981684982,1.32822732822733,34.9268582294462
1743293615203,20:13:35.203,67,-1,1200,1.32778332778333,34.9268582294462
1743293615223,20:13:35.223,67,-1,1194.13919413919,1.32778332778333,34.9268582294462
1743293615242,20:13:35.242,67,-1,1194.13919413919,1.32733932733933,34.9268582294462
1743293615262,20:13:35.262,67,-1,1179.48717948718,1.32733932733933,34.9268582294462
1743293615281,20:13:35.281,67,-1,1163.36996336996,1.32689532689533,34.9268582294462
1743293615301,20:13:35.301,67,-1,1158.24175824176,1.32645132645133,34.9268582294462
1743293615320,20:13:35.320,67,-1,1167.03296703297,1.32600732600733,34.9268582294462
1743293615340,20:13:35.340,67,-1,1177.28937728938,1.32645132645133,34.9268582294462
1743293615359,20:13:35.359,67,-1,1172.16117216117,1.32645132645133,34.9268582294462
1743293615379,20:13:35.379,67,-1,1174.35897435897,1.32645132645133,34.9268582294462
1743293615398,20:13:35.398,67,-1,1209.52380952381,1.32600732600733,34.9268582294462
1743293615418,20:13:35.418,67,-1,1310.62271062271,1.32556332556333,34.9268582294462
1743293615437,20:13:35.437,67,-1,1473.26007326007,1.32556332556333,34.9268582294462
1743293615457,20:13:35.457,67,-1,1636.63003663004,1.32511932511932,34.9268582294462
1743293615476,20:13:35.476,67,-1,1760.43956043956,1.32467532467532,34.9268582294462
1743293615496,20:13:35.496,67,-1,1826.37362637363,1.32423132423132,34.9268582294462
1743293615515,20:13:35.515,67,-1,1843.22344322344,1.32378732378732,34.9268582294462
1743293615535,20:13:35.535,67,-1,1830.76923076923,1.32378732378732,34.9268582294462
1743293615554,20:13:35.554,67,-1,1808.79120879121,1.32334332334332,34.9268582294462
1743293615574,20:13:35.574,67,-1,1775.82417582418,1.32289932289932,34.9268582294462
1743293615593,20:13:35.593,67,-1,1744.32234432234,1.32289932289932,34.9268582294462
1743293615613,20:13:35.613,67,-1,1710.62271062271,1.32245532245532,34.9268582294462
1743293615632,20:13:35.632,67,-1,1668.86446886447,1.32201132201132,34.9268582294462
1743293615652,20:13:35.652,67,-1,1616.11721611722,1.32156732156732,34.9268582294462
1743293615671,20:13:35.671,67,-1,1561.90476190476,1.32156732156732,34.9268582294462
1743293615691,20:13:35.691,67,-1,1518.68131868132,1.32201132201132,34.9268582294462
1743293615710,20:13:35.710,67,-1,1480.58608058608,1.32201132201132,34.9268582294462
1743293615730,20:13:35.730,67,-1,1446.88644688645,1.32156732156732,34.9268582294462
1743293615749,20:13:35.749,67,-1,1426.37362637363,1.32112332112332,34.9268582294462
1743293615769,20:13:35.769,67,-1,1408.79120879121,1.32067932067932,34.9268582294462
1743293615788,20:13:35.788,67,-1,1387.54578754579,1.32067932067932,34.9268582294462
1743293615808,20:13:35.808,67,-1,1375.82417582418,1.32023532023532,34.9268582294462
1743293615827,20:13:35.827,67,-1,1355.31135531136,1.31979131979132,34.9268582294462
1743293615847,20:13:35.847,67,-1,1342.85714285714,1.31934731934732,34.9268582294462
1743293615866,20:13:35.866,67,-1,1339.19413919414,1.31934731934732,34.9268582294462
1743293615886,20:13:35.886,67,-1,1325.27472527473,1.31934731934732,34.9468645536108
1743293615905,20:13:35.905,67,-1,1300.3663003663,1.31934731934732,34.9468645536108
1743293615925,20:13:35.925,67,-1,1278.38827838828,1.31890331890332,34.9468645536108
1743293615944,20:13:35.944,67,-1,1259.34065934066,1.31890331890332,34.9468645536108
1743293615964,20:13:35.964,67,-1,1237.36263736264,1.31890331890332,34.9468645536108
1743293615983,20:13:35.983,67,-1,1211.72161172161,1.31845931845932,34.9468645536108
1743293616003,20:13:36.003,67,-1,1196.336996337,1.31801531801532,34.9468645536108
1743293616022,20:13:36.022,77,-1,1195.6043956044,1.31757131757132,34.9468645536108
1743293616042,20:13:36.042,77,-1,1189.74358974359,1.31757131757132,34.9468645536108
1743293616061,20:13:36.061,77,-1,1192.67399267399,1.31712731712732,34.9468645536108
1743293616081,20:13:36.081,77,-1,1190.47619047619,1.31712731712732,34.9468645536108
1743293616100,20:13:36.100,77,-1,1185.34798534799,1.31712731712732,34.9468645536108
1743293616120,20:13:36.120,77,-1,1185.34798534799,1.31668331668332,34.9468645536108
1743293616139,20:13:36.139,77,-1,1185.34798534799,1.31623931623932,34.9468645536108
1743293616159,20:13:36.159,77,-1,1167.76556776557,1.31623931623932,34.9468645536108
1743293616178,20:13:36.178,77,-1,1142.85714285714,1.31623931623932,34.9468645536108
1743293616198,20:13:36.198,77,-1,1127.47252747253,1.31579531579532,34.9468645536108
1743293616217,20:13:36.217,77,-1,1105.49450549451,1.31579531579532,34.9468645536108
1743293616237,20:13:36.237,77,-1,1106.95970695971,1.31535131535132,34.9468645536108
1743293616256,20:13:36.256,77,-1,1172.89377289377,1.31490731490731,34.9468645536108
1743293616276,20:13:36.276,77,-1,1306.95970695971,1.31490731490731,34.9468645536108
1743293616295,20:13:36.295,77,-1,1466.66666666667,1.31490731490731,34.9468645536108
1743293616315,20:13:36.315,77,-1,1621.97802197802,1.31446331446331,34.9468645536108
1743293616334,20:13:36.334,77,-1,1750.18315018315,1.31446331446331,34.9468645536108
1743293616354,20:13:36.354,77,-1,1818.31501831502,1.31401931401931,34.9468645536108
1743293616373,20:13:36.373,77,-1,1831.50183150183,1.31357531357531,34.9468645536108
1743293616393,20:13:36.393,77,-1,1803.663003663,1.31357531357531,34.9468645536108
1743293616412,20:13:36.412,77,-1,1767.03296703297,1.31357531357531,34.9468645536108
1743293616432,20:13:36.432,77,-1,1726.73992673993,1.31357531357531,34.9468645536108
1743293616451,20:13:36.451,77,-1,1675.45787545788,1.31313131313131,34.9468645536108
1743293616471,20:13:36.471,77,-1,1627.83882783883,1.31313131313131,34.9468645536108
1743293616490,20:13:36.490,77,-1,1584.61538461538,1.31268731268731,34.9468645536108
1743293616510,20:13:36.510,77,-1,1534.06593406593,1.31224331224331,34.9468645536108
1743293616529,20:13:36.529,77,-1,1484.24908424908,1.31224331224331,34.9468645536108
1743293616549,20:13:36.549,77,-1,1434.43223443223,1.31224331224331,34.9468645536108
1743293616568,20:13:36.568,77,-1,1403.663003663,1.31224331224331,34.9468645536108
1743293616588,20:13:36.588,77,-1,1394.13919413919,1.31224331224331,34.9468645536108
1743293616607,20:13:36.607,77,-1,1391.20879120879,1.31224331224331,34.9468645536108
1743293616627,20:13:36.627,77,-1,1383.88278388278,1.31179931179931,34.9468645536108
1743293616646,20:13:36.646,77,-1,1385.34798534799,1.31179931179931,34.9468645536108
1743293616666,20:13:36.666,77,-1,1389.01098901099,1.31135531135531,34.9468645536108
1743293616685,20:13:36.685,77,-1,1376.55677655678,1.31135531135531,34.9468645536108
1743293616705,20:13:36.705,77,-1,1352.38095238095,1.31135531135531,34.9468645536108
1743293616724,20:13:36.724,77,-1,1326.00732600733,1.31091131091131,34.9468645536108
1743293616744,20:13:36.744,77,-1,1304.0293040293,1.31091131091131,34.9468645536108
1743293616763,20:13:36.763,77,-1,1288.64468864469,1.31091131091131,34.9468645536108
1743293616783,20:13:36.783,77,-1,1281.31868131868,1.31091131091131,34.9468645536108
1743293616802,20:13:36.802,77,-1,1276.92307692308,1.31046731046731,34.9468645536108
1743293616822,20:13:36.822,77,-1,1271.79487179487,1.31091131091131,34.9468645536108
1743293616841,20:13:36.841,77,-1,1266.66666666667,1.31091131091131,34.9468645536108
1743293616861,20:13:36.861,73,-1,1246.15384615385,1.31091131091131,34.9468645536108
1743293616880,20:13:36.880,73,-1,1226.37362637363,1.31135531135531,34.9618692356162
1743293616900,20:13:36.900,73,-1,1229.30402930403,1.31091131091131,34.9618692356162
1743293616919,20:13:36.919,73,-1,1239.56043956044,1.31091131091131,34.9618692356162
1743293616939,20:13:36.939,73,-1,1231.50183150183,1.31091131091131,34.9618692356162
1743293616958,20:13:36.958,73,-1,1226.37362637363,1.31046731046731,34.9618692356162
1743293616978,20:13:36.978,73,-1,1219.78021978022,1.31046731046731,34.9618692356162
1743293616997,20:13:36.997,73,-1,1254.21245421245,1.31046731046731,34.9618692356162
1743293617017,20:13:37.017,73,-1,1345.78754578755,1.31046731046731,34.9618692356162
1743293617036,20:13:37.036,73,-1,1475.45787545788,1.31046731046731,34.9618692356162
1743293617056,20:13:37.056,73,-1,1607.32600732601,1.31046731046731,34.9618692356162
1743293617075,20:13:37.075,73,-1,1712.82051282051,1.31002331002331,34.9618692356162
1743293617095,20:13:37.095,73,-1,1760.43956043956,1.31002331002331,34.9618692356162
1743293617114,20:13:37.114,73,-1,1767.76556776557,1.30957930957931,34.9618692356162
1743293617134,20:13:37.134,73,-1,1748.71794871795,1.30957930957931,34.9618692356162
1743293617153,20:13:37.153,73,-1,1707.69230769231,1.30913530913531,34.9618692356162
1743293617173,20:13:37.173,73,-1,1679.12087912088,1.30913530913531,34.9618692356162
1743293617192,20:13:37.192,73,-1,1654.21245421245,1.30869130869131,34.9618692356162
1743293617212,20:13:37.212,73,-1,1624.90842490842,1.30869130869131,34.9618692356162
1743293617231,20:13:37.231,73,-1,1589.74358974359,1.30869130869131,34.9618692356162
1743293617251,20:13:37.251,73,-1,1542.12454212454,1.30869130869131,34.9618692356162
1743293617270,20:13:37.270,73,-1,1502.5641025641,1.30869130869131,34.9618692356162
1743293617290,20:13:37.290,73,-1,1462.27106227106,1.30824730824731,34.9618692356162
1743293617309,20:13:37.309,73,-1,1433.69963369963,1.30824730824731,34.9618692356162
1743293617329,20:13:37.329,73,-1,1410.25641025641,1.30824730824731,34.9618692356162
1743293617348,20:13:37.348,73,-1,1392.67399267399,1.30824730824731,34.9618692356162
1743293617368,20:13:37.368,73,-1,1386.08058608059,1.30780330780331,34.9618692356162
1743293617387,20:13:37.387,73,-1,1382.41758241758,1.30735930735931,34.9618692356162
1743293617407,20:13:37.407,73,-1,1376.55677655678,1.30735930735931,34.9618692356162
1743293617426,20:13:37.426,73,-1,1359.70695970696,1.30691530691531,34.9618692356162
1743293617446,20:13:37.446,73,-1,1335.53113553114,1.30735930735931,34.9618692356162
1743293617465,20:13:37.465,73,-1,1314.28571428571,1.30691530691531,34.9618692356162
1743293617485,20:13:37.485,73,-1,1304.7619047619,1.30691530691531,34.9618692356162
1743293617504,20:13:37.504,73,-1,1297.4358974359,1.30647130647131,34.9618692356162
1743293617524,20:13:37.524,73,-1,1281.31868131868,1.30602730602731,34.9618692356162
1743293617543,20:13:37.543,73,-1,1258.60805860806,1.30602730602731,34.9618692356162
1743293617563,20:13:37.563,73,-1,1246.15384615385,1.30558330558331,34.9618692356162
1743293617582,20:13:37.582,73,-1,1232.96703296703,1.30558330558331,34.9618692356162
1743293617602,20:13:37.602,73,-1,1221.97802197802,1.30513930513931,34.9618692356162
1743293617621,20:13:37.621,73,-1,1220.51282051282,1.30513930513931,34.9618692356162
1743293617641,20:13:37.641,73,-1,1223.44322344322,1.3046953046953,34.9618692356162
1743293617660,20:13:37.660,73,-1,1217.58241758242,1.3042513042513,34.9618692356162
1743293617680,20:13:37.680,73,-1,1202.9304029304,1.3042513042513,34.9618692356162
1743293617699,20:13:37.699,73,-1,1189.01098901099,1.3038073038073,34.9618692356162
1743293617719,20:13:37.719,72,-1,1207.32600732601,1.3038073038073,34.9618692356162
1743293617738,20:13:37.738,72,-1,1291.57509157509,1.3033633033633,34.9618692356162
1743293617758,20:13:37.758,72,-1,1435.16483516484,1.3033633033633,34.9618692356162
1743293617777,20:13:37.777,72,-1,1587.54578754579,1.3029193029193,34.9618692356162
1743293617797,20:13:37.797,72,-1,1719.41391941392,1.3024753024753,34.9618692356162
1743293617816,20:13:37.816,72,-1,1810.25641025641,1.3020313020313,34.9618692356162
1743293617836,20:13:37.836,72,-1,1849.81684981685,1.3020313020313,34.9618692356162
1743293617855,20:13:37.855,72,-1,1855.67765567766,1.3020313020313,34.9618692356162
1743293617875,20:13:37.875,72,-1,1836.63003663004,1.3015873015873,34.9668707846431
1743293617894,20:13:37.894,72,-1,1787.54578754579,1.3011433011433,34.9668707846431
1743293617914,20:13:37.914,72,-1,1751.64835164835,1.3011433011433,34.9668707846431
1743293617933,20:13:37.933,72,-1,1719.41391941392,1.3006993006993,34.9668707846431
1743293617953,20:13:37.953,72,-1,1706.95970695971,1.3002553002553,34.9668707846431
1743293617972,20:13:37.972,72,-1,1689.37728937729,1.2998112998113,34.9668707846431
1743293617992,20:13:37.992,72,-1,1646.15384615385,1.2998112998113,34.9668707846431
1743293618011,20:13:38.011,72,-1,1585.34798534799,1.2998112998113,34.9668707846431
1743293618031,20:13:38.031,72,-1,1528.93772893773,1.2993672993673,34.9668707846431
1743293618050,20:13:38.050,72,-1,1479.12087912088,1.2989232989233,34.9668707846431
1743293618070,20:13:38.070,72,-1,1449.81684981685,1.2989232989233,34.9668707846431
1743293618089,20:13:38.089,72,-1,1435.89743589744,1.2984792984793,34.9668707846431
1743293618109,20:13:38.109,72,-1,1430.76923076923,1.2980352980353,34.9668707846431
1743293618128,20:13:38.128,72,-1,1430.76923076923,1.2975912975913,34.9668707846431
1743293618148,20:13:38.148,72,-1,1423.44322344322,1.2975912975913,34.9668707846431
1743293618167,20:13:38.167,72,-1,1404.3956043956,1.2975912975913,34.9668707846431
1743293618187,20:13:38.187,72,-1,1389.01098901099,1.2971472971473,34.9668707846431
1743293618206,20:13:38.206,72,-1,1373.62637362637,1.2971472971473,34.9668707846431
1743293618226,20:13:38.226,72,-1,1343.58974358974,1.2967032967033,34.9668707846431
1743293618245,20:13:38.245,72,-1,1304.7619047619,1.2967032967033,34.9668707846431
1743293618265,20:13:38.265,72,-1,1275.45787545788,1.2967032967033,34.9668707846431
1743293618284,20:13:38.284,72,-1,1269.59706959707,1.2967032967033,34.9668707846431
1743293618304,20:13:38.304,72,-1,1260.07326007326,1.2962592962593,34.9668707846431
1743293618323,20:13:38.323,72,-1,1247.61904761905,1.2962592962593,34.9668707846431
1743293618343,20:13:38.343,72,-1,1244.68864468864,1.2962592962593,34.9668707846431
1743293618362,20:13:38.362,72,-1,1235.16483516484,1.2958152958153,34.9668707846431
1743293618382,20:13:38.382,72,-1,1214.65201465201,1.2958152958153,34.9668707846431
1743293618401,20:13:38.401,72,-1,1200,1.2953712953713,34.9668707846431
1743293618421,20:13:38.421,72,-1,1181.68498168498,1.29492729492729,34.9668707846431
1743293618440,20:13:38.440,72,-1,1158.97435897436,1.29492729492729,34.9668707846431
1743293618460,20:13:38.460,72,-1,1175.82417582418,1.29448329448329,34.9668707846431
1743293618479,20:13:38.479,72,-1,1255.67765567766,1.29448329448329,34.9668707846431
1743293618499,20:13:38.499,72,-1,1408.79120879121,1.29448329448329,34.9668707846431
1743293618518,20:13:38.518,72,-1,1580.95238095238,1.29403929403929,34.9668707846431
1743293618538,20:13:38.538,72,-1,1721.61172161172,1.29403929403929,34.9668707846431
1743293618557,20:13:38.557,72,-1,1810.25641025641,1.29359529359529,34.9668707846431
1743293618577,20:13:38.577,70,-1,1848.35164835165,1.29403929403929,34.9668707846431
1743293618596,20:13:38.596,70,-1,1849.81684981685,1.29403929403929,34.9668707846431
1743293618616,20:13:38.616,70,-1,1847.61904761905,1.29403929403929,34.9668707846431
1743293618635,20:13:38.635,70,-1,1838.82783882784,1.29359529359529,34.9668707846431
1743293618655,20:13:38.655,70,-1,1821.24542124542,1.29315129315129,34.9668707846431
1743293618674,20:13:38.674,70,-1,1787.54578754579,1.29270729270729,34.9668707846431
1743293618694,20:13:38.694,70,-1,1753.84615384615,1.29270729270729,34.9668707846431
1743293618713,20:13:38.713,70,-1,1720.87912087912,1.29270729270729,34.9668707846431
1743293618733,20:13:38.733,70,-1,1678.38827838828,1.29270729270729,34.9668707846431
1743293618752,20:13:38.752,70,-1,1616.84981684982,1.29270729270729,34.9668707846431
1743293618772,20:13:38.772,70,-1,1576.55677655678,1.29181929181929,34.9668707846431
1743293618791,20:13:38.791,70,-1,1555.31135531136,1.29226329226329,34.9668707846431
1743293618811,20:13:38.811,70,-1,1529.67032967033,1.29181929181929,34.9668707846431
1743293618830,20:13:38.830,70,-1,1492.30769230769,1.29181929181929,34.9668707846431
1743293618850,20:13:38.850,70,-1,1452.74725274725,1.29137529137529,34.9668707846431
1743293618869,20:13:38.869,70,-1,1435.89743589744,1.29048729048729,34.9768738652347
1743293618889,20:13:38.889,70,-1,1421.24542124542,1.29004329004329,34.9768738652347
1743293618908,20:13:38.908,70,-1,1406.59340659341,1.28915528915529,34.9768738652347
1743293618928,20:13:38.928,70,-1,1389.74358974359,1.28915528915529,34.9768738652347
1743293618947,20:13:38.947,70,-1,1383.88278388278,1.28915528915529,34.9768738652347
1743293618967,20:13:38.967,70,-1,1375.09157509157,1.28871128871129,34.9768738652347
1743293618986,20:13:38.986,70,-1,1343.58974358974,1.28826728826729,34.9768738652347
1743293619006,20:13:39.006,70,-1,1310.62271062271,1.28782328782329,34.9768738652347
1743293619025,20:13:39.025,70,-1,1293.04029304029,1.28782328782329,34.9768738652347
1743293619045,20:13:39.045,70,-1,1279.85347985348,1.28782328782329,34.9768738652347
1743293619064,20:13:39.064,70,-1,1249.81684981685,1.28782328782329,34.9768738652347
1743293619084,20:13:39.084,70,-1,1239.56043956044,1.28693528693529,34.9768738652347
1743293619103,20:13:39.103,70,-1,1235.89743589744,1.28649128649129,34.9768738652347
1743293619123,20:13:39.123,70,-1,1231.50183150183,1.28604728604729,34.9768738652347
1743293619142,20:13:39.142,70,-1,1221.97802197802,1.28604728604729,34.9768738652347
1743293619162,20:13:39.162,70,-1,1201.4652014652,1.28604728604729,34.9768738652347
1743293619181,20:13:39.181,70,-1,1186.81318681319,1.28604728604729,34.9768738652347
1743293619201,20:13:39.201,70,-1,1185.34798534799,1.28604728604729,34.9768738652347
1743293619220,20:13:39.220,70,-1,1183.88278388278,1.28560328560329,34.9768738652347
1743293619240,20:13:39.240,70,-1,1223.44322344322,1.28515928515929,34.9768738652347
1743293619259,20:13:39.259,70,-1,1321.61172161172,1.28471528471528,34.9768738652347
1743293619279,20:13:39.279,70,-1,1460.80586080586,1.28471528471528,34.9768738652347
1743293619298,20:13:39.298,70,-1,1596.336996337,1.28427128427128,34.9768738652347
1743293619318,20:13:39.318,70,-1,1700.3663003663,1.28427128427128,34.9768738652347
1743293619337,20:13:39.337,70,-1,1765.56776556777,1.28382728382728,34.9768738652347
1743293619357,20:13:39.357,70,-1,1802.1978021978,1.28382728382728,34.9768738652347
1743293619376,20:13:39.376,70,-1,1829.30402930403,1.28338328338328,34.9768738652347
1743293619396,20:13:39.396,70,-1,1830.03663003663,1.28338328338328,34.9768738652347
1743293619415,20:13:39.415,70,-1,1828.57142857143,1.28338328338328,34.9768738652347
1743293619435,20:13:39.435,70,-1,1822.71062271062,1.28293928293928,34.9768738652347
1743293619454,20:13:39.454,70,-1,1794.13919413919,1.28249528249528,34.9768738652347
1743293619474,20:13:39.474,70,-1,1762.63736263736,1.28249528249528,34.9768738652347
1743293619493,20:13:39.493,70,-1,1724.54212454212,1.28249528249528,34.9768738652347
1743293619513,20:13:39.513,70,-1,1671.06227106227,1.28293928293928,34.9768738652347
1743293619532,20:13:39.532,70,-1,1610.25641025641,1.28249528249528,34.9768738652347
1743293619552,20:13:39.552,70,-1,1538.46153846154,1.28205128205128,34.9768738652347
1743293619571,20:13:39.571,70,-1,1479.85347985348,1.28160728160728,34.9768738652347
1743293619591,20:13:39.591,70,-1,1467.39926739927,1.28160728160728,34.9768738652347
1743293619610,20:13:39.610,70,-1,1466.66666666667,1.28160728160728,34.9768738652347
1743293619630,20:13:39.630,70,-1,1460.80586080586,1.28116328116328,34.9768738652347
1743293619649,20:13:39.649,70,-1,1443.22344322344,1.28116328116328,34.9768738652347
1743293619669,20:13:39.669,70,-1,1429.30402930403,1.28071928071928,34.9768738652347
1743293619688,20:13:39.688,70,-1,1416.11721611722,1.28027528027528,34.9768738652347
1743293619708,20:13:39.708,70,-1,1395.6043956044,1.28027528027528,34.9768738652347
1743293619727,20:13:39.727,70,-1,1380.95238095238,1.28027528027528,34.9768738652347
1743293619747,20:13:39.747,70,-1,1364.83516483516,1.27983127983128,34.9768738652347
1743293619766,20:13:39.766,70,-1,1336.99633699634,1.27983127983128,34.9768738652347
1743293619786,20:13:39.786,70,-1,1290.10989010989,1.27938727938728,34.9768738652347
1743293619805,20:13:39.805,70,-1,1256.41025641026,1.27938727938728,34.9768738652347
1743293619825,20:13:39.825,70,-1,1228.57142857143,1.27894327894328,34.9768738652347
1743293619844,20:13:39.844,70,-1,1215.38461538462,1.27894327894328,34.9768738652347
1743293619864,20:13:39.864,70,-1,1212.45421245421,1.27894327894328,34.9818753967993
1743293619883,20:13:39.883,70,-1,1221.24542124542,1.27894327894328,34.9818753967993
1743293619903,20:13:39.903,70,-1,1222.71062271062,1.27849927849928,34.9818753967993
1743293619922,20:13:39.922,70,-1,1225.64102564103,1.27805527805528,34.9818753967993
1743293619942,20:13:39.942,70,-1,1217.58241758242,1.27805527805528,34.9818753967993
1743293619961,20:13:39.961,70,-1,1209.52380952381,1.27805527805528,34.9818753967993
1743293619981,20:13:39.981,70,-1,1210.25641025641,1.27761127761128,34.9818753967993
1743293620000,20:13:40.000,70,-1,1202.1978021978,1.27761127761128,34.9818753967993
1743293620020,20:13:40.020,70,-1,1172.16117216117,1.27716727716728,34.9818753967993
1743293620039,20:13:40.039,70,-1,1160.43956043956,1.27716727716728,34.9818753967993
1743293620059,20:13:40.059,70,-1,1199.2673992674,1.27672327672328,34.9818753967993
1743293620078,20:13:40.078,70,-1,1295.9706959707,1.27627927627928,34.9818753967993
1743293620098,20:13:40.098,70,-1,1421.24542124542,1.27627927627928,34.9818753967993
1743293620117,20:13:40.117,70,-1,1542.85714285714,1.27583527583528,34.9818753967993
1743293620137,20:13:40.137,70,-1,1630.76923076923,1.27539127539128,34.9818753967993
1743293620156,20:13:40.156,70,-1,1696.7032967033,1.27494727494727,34.9818753967993
1743293620176,20:13:40.176,70,-1,1743.58974358974,1.27450327450327,34.9818753967993
1743293620195,20:13:40.195,70,-1,1769.23076923077,1.27450327450327,34.9818753967993
1743293620215,20:13:40.215,70,-1,1764.10256410256,1.27405927405927,34.9818753967993
1743293620234,20:13:40.234,70,-1,1743.58974358974,1.27317127317127,34.9818753967993
1743293620254,20:13:40.254,70,-1,1715.75091575092,1.27317127317127,34.9818753967993
1743293620273,20:13:40.273,70,-1,1703.2967032967,1.27272727272727,34.9818753967993
1743293620293,20:13:40.293,70,-1,1684.24908424908,1.27228327228327,34.9818753967993
1743293620312,20:13:40.312,68,-1,1656.41025641026,1.27228327228327,34.9818753967993
1743293620332,20:13:40.332,68,-1,1608.79120879121,1.27183927183927,34.9818753967993
1743293620351,20:13:40.351,68,-1,1546.52014652015,1.27139527139527,34.9818753967993
1743293620371,20:13:40.371,68,-1,1517.21611721612,1.27139527139527,34.9818753967993
1743293620390,20:13:40.390,68,-1,1498.9010989011,1.27095127095127,34.9818753967993
1743293620410,20:13:40.410,68,-1,1471.79487179487,1.27095127095127,34.9818753967993
1743293620429,20:13:40.429,68,-1,1436.63003663004,1.27095127095127,34.9818753967993
1743293620449,20:13:40.449,68,-1,1412.45421245421,1.27050727050727,34.9818753967993
1743293620468,20:13:40.468,68,-1,1389.74358974359,1.26961926961927,34.9818753967993
1743293620488,20:13:40.488,68,-1,1363.36996336996,1.26961926961927,34.9818753967993
1743293620507,20:13:40.507,68,-1,1344.32234432234,1.26961926961927,34.9818753967993
1743293620527,20:13:40.527,68,-1,1329.67032967033,1.26917526917527,34.9818753967993
1743293620546,20:13:40.546,68,-1,1322.34432234432,1.26873126873127,34.9818753967993
1743293620566,20:13:40.566,68,-1,1312.08791208791,1.26873126873127,34.9818753967993
1743293620585,20:13:40.585,68,-1,1298.1684981685,1.26828726828727,34.9818753967993
1743293620605,20:13:40.605,68,-1,1276.19047619048,1.26784326784327,34.9818753967993
1743293620624,20:13:40.624,68,-1,1254.94505494505,1.26784326784327,34.9818753967993
1743293620644,20:13:40.644,68,-1,1244.68864468864,1.26739926739927,34.9818753967993
1743293620663,20:13:40.663,68,-1,1229.30402930403,1.26739926739927,34.9818753967993
1743293620683,20:13:40.683,68,-1,1217.58241758242,1.26739926739927,34.9818753967993
1743293620702,20:13:40.702,68,-1,1214.65201465201,1.26651126651127,34.9818753967993
1743293620722,20:13:40.722,68,-1,1210.25641025641,1.26651126651127,34.9818753967993
1743293620741,20:13:40.741,68,-1,1210.98901098901,1.26606726606727,34.9818753967993
1743293620761,20:13:40.761,68,-1,1197.8021978022,1.26562326562327,34.9818753967993
1743293620780,20:13:40.780,68,-1,1188.27838827839,1.26562326562327,34.9818753967993
1743293620800,20:13:40.800,68,-1,1186.81318681319,1.26517926517927,34.9818753967993
1743293620819,20:13:40.819,68,-1,1179.48717948718,1.26473526473526,34.9818753967993
1743293620839,20:13:40.839,68,-1,1172.89377289377,1.26429126429126,34.9818753967993
1743293620858,20:13:40.858,68,-1,1171.42857142857,1.26473526473526,35.0018814648502
1743293620878,20:13:40.878,68,-1,1189.74358974359,1.26429126429126,35.0018814648502
1743293620897,20:13:40.897,68,-1,1248.35164835165,1.26384726384726,35.0018814648502
1743293620917,20:13:40.917,68,-1,1347.25274725275,1.26340326340326,35.0018814648502
1743293620936,20:13:40.936,68,-1,1464.46886446886,1.26295926295926,35.0018814648502
1743293620956,20:13:40.956,68,-1,1550.18315018315,1.26295926295926,35.0018814648502
1743293620975,20:13:40.975,68,-1,1600.7326007326,1.26251526251526,35.0018814648502
1743293620995,20:13:40.995,68,-1,1624.17582417582,1.26207126207126,35.0018814648502
1743293621014,20:13:41.014,68,-1,1629.30402930403,1.26162726162726,35.0018814648502
1743293621034,20:13:41.034,68,-1,1636.63003663004,1.26118326118326,35.0018814648502
1743293621053,20:13:41.053,70,-1,1642.49084249084,1.26118326118326,35.0018814648502
1743293621073,20:13:41.073,70,-1,1627.83882783883,1.26073926073926,35.0018814648502
1743293621092,20:13:41.092,70,-1,1602.9304029304,1.26029526029526,35.0018814648502
1743293621112,20:13:41.112,70,-1,1569.96336996337,1.26073926073926,35.0018814648502
1743293621131,20:13:41.131,70,-1,1528.93772893773,1.26029526029526,35.0018814648502
1743293621151,20:13:41.151,70,-1,1482.78388278388,1.25985125985126,35.0018814648502
1743293621170,20:13:41.170,70,-1,1454.21245421245,1.25940725940726,35.0018814648502
1743293621190,20:13:41.190,70,-1,1424.90842490842,1.25896325896326,35.0018814648502
1743293621209,20:13:41.209,70,-1,1402.9304029304,1.25896325896326,35.0018814648502
1743293621229,20:13:41.229,70,-1,1391.94139194139,1.25851925851926,35.0018814648502
