RawTimestamp,LocalTime,HeartRate,PPG,GSR,Temperature
1743291509716,19:38:29.716,-1,0,12.5358961595895,26.4608428180218
1743291509735,19:38:29.735,-1,0,12.5358961595895,26.4608428180218
1743291509755,19:38:29.755,-1,0,1.11165782807574,26.4608428180218
1743291509774,19:38:29.774,-1,0,1.11165782807574,26.4608428180218
1743291509794,19:38:29.794,-1,0,1.11165782807574,26.4608428180218
1743291509813,19:38:29.813,-1,0,1.11165782807574,26.4608428180218
1743291509833,19:38:29.833,-1,0,1.11165782807574,26.4608428180218
1743291509852,19:38:29.852,-1,0,1.08486171203941,26.4608428180218
1743291509872,19:38:29.872,-1,0,1.08486171203941,26.4608428180218
1743291509891,19:38:29.891,-1,0,1.08486171203941,26.4608428180218
1743291509911,19:38:29.911,-1,0,1.08486171203941,26.4608428180218
1743291509930,19:38:29.930,-1,0,1.08486171203941,26.4608428180218
1743291509950,19:38:29.950,-1,0,1.08058608058608,26.4608428180218
1743291509969,19:38:29.969,-1,0,1.08058608058608,26.4608428180218
1743291509989,19:38:29.989,-1,0,1.08058608058608,26.4608428180218
1743291510008,19:38:30.008,-1,0,1.08058608058608,26.4608428180218
1743291510028,19:38:30.028,-1,0,1.08058608058608,26.4608428180218
1743291510047,19:38:30.047,-1,0,1.07603507603508,26.4608428180218
1743291510067,19:38:30.067,-1,0,1.07647907647908,26.4608428180218
1743291510086,19:38:30.086,-1,0,1.07647907647908,26.4608428180218
1743291510106,19:38:30.106,-1,0,1.07647907647908,26.4608428180218
1743291510125,19:38:30.125,-1,0,1.07647907647908,26.4608428180218
1743291510145,19:38:30.145,-1,0,1.07647907647908,26.4608428180218
1743291510164,19:38:30.164,-1,0,1.07647907647908,26.4608428180218
1743291510184,19:38:30.184,-1,0,1.07647907647908,26.4608428180218
1743291510203,19:38:30.203,-1,0,1.07647907647908,26.4608428180218
1743291510223,19:38:30.223,-1,0,1.07647907647908,26.4608428180218
1743291510242,19:38:30.242,-1,0,1.07647907647908,26.4608428180218
1743291510262,19:38:30.262,-1,0,1.07647907647908,26.4608428180218
1743291510281,19:38:30.281,-1,0,1.07647907647908,26.4608428180218
1743291510301,19:38:30.301,-1,0,1.07647907647908,26.4608428180218
1743291510320,19:38:30.320,-1,0,1.07647907647908,26.4608428180218
1743291510340,19:38:30.340,-1,0,1.07603507603508,26.4608428180218
1743291510359,19:38:30.359,-1,0,1.07603507603508,26.4608428180218
1743291510379,19:38:30.379,-1,0,1.07603507603508,26.4608428180218
1743291510398,19:38:30.398,-1,0,1.07603507603508,26.4608428180218
1743291510418,19:38:30.418,-1,0,1.07603507603508,26.4608428180218
1743291510437,19:38:30.437,-1,0,1.07603507603508,26.4608428180218
1743291510457,19:38:30.457,-1,0,1.07603507603508,26.4608428180218
1743291510476,19:38:30.476,-1,0,1.07559107559108,26.4608428180218
1743291510496,19:38:30.496,-1,0,1.07514707514707,26.4608428180218
1743291510515,19:38:30.515,-1,0,1.07514707514707,26.4608428180218
1743291510535,19:38:30.535,-1,0,1.07470307470307,26.4608428180218
1743291510554,19:38:30.554,-1,0,1.07425907425907,26.4608428180218
1743291510574,19:38:30.574,-1,0,1.07381507381507,26.4608428180218
1743291510593,19:38:30.593,-1,0,1.07337107337107,26.4608428180218
1743291510613,19:38:30.613,-1,0,1.07248307248307,26.4608428180218
1743291510632,19:38:30.632,-1,0,1.07248307248307,31.3091853782535
1743291510652,19:38:30.652,-1,126.007326007326,1.07203907203907,31.3091853782535
1743291510671,19:38:30.671,-1,550.18315018315,1.07159507159507,31.3091853782535
1743291510691,19:38:30.691,-1,912.820512820513,1.07159507159507,31.3091853782535
1743291510710,19:38:30.710,-1,1148.71794871795,1.07070707070707,31.3091853782535
1743291510730,19:38:30.730,-1,1290.10989010989,1.07070707070707,31.3091853782535
1743291510749,19:38:30.749,-1,1357.50915750916,1.07070707070707,31.3091853782535
1743291510769,19:38:30.769,-1,1369.23076923077,1.07026307026307,31.3091853782535
1743291510788,19:38:30.788,-1,1369.96336996337,1.07026307026307,31.3091853782535
1743291510808,19:38:30.808,-1,1361.90476190476,1.06937506937507,31.3091853782535
1743291510827,19:38:30.827,-1,1341.39194139194,1.06937506937507,31.3091853782535
1743291510847,19:38:30.847,-1,1323.07692307692,1.06937506937507,31.3091853782535
1743291510866,19:38:30.866,-1,1306.22710622711,1.06937506937507,31.3091853782535
1743291510886,19:38:30.886,-1,1282.05128205128,1.06893106893107,31.3091853782535
1743291510905,19:38:30.905,-1,1255.67765567766,1.06848706848707,31.3091853782535
1743291510925,19:38:30.925,-1,1243.95604395604,1.06848706848707,31.3091853782535
1743291510944,19:38:30.944,-1,1231.50183150183,1.06848706848707,31.3091853782535
1743291510964,19:38:30.964,-1,1221.97802197802,1.06804306804307,31.3091853782535
1743291510983,19:38:30.983,-1,1202.9304029304,1.06804306804307,31.3091853782535
1743291511003,19:38:31.003,-1,1175.82417582418,1.06804306804307,31.3091853782535
1743291511022,19:38:31.022,-1,1157.50915750916,1.06804306804307,31.3091853782535
1743291511042,19:38:31.042,-1,1142.12454212454,1.06759906759907,31.3091853782535
1743291511061,19:38:31.061,-1,1118.68131868132,1.06759906759907,31.3091853782535
1743291511081,19:38:31.081,-1,1119.41391941392,1.06759906759907,31.3091853782535
1743291511100,19:38:31.100,-1,1121.61172161172,1.06759906759907,31.3091853782535
1743291511120,19:38:31.120,-1,1131.13553113553,1.06759906759907,31.3091853782535
1743291511139,19:38:31.139,-1,1143.58974358974,1.06715506715507,31.3091853782535
1743291511159,19:38:31.159,-1,1139.92673992674,1.06671106671107,31.3091853782535
1743291511178,19:38:31.178,-1,1131.13553113553,1.06671106671107,31.3091853782535
1743291511198,19:38:31.198,-1,1117.94871794872,1.06626706626707,31.3091853782535
1743291511217,19:38:31.217,-1,1097.4358974359,1.06671106671107,31.3091853782535
1743291511237,19:38:31.237,-1,1081.31868131868,1.06626706626707,31.3091853782535
1743291511256,19:38:31.256,-1,1101.8315018315,1.06626706626707,31.3091853782535
1743291511276,19:38:31.276,-1,1153.11355311355,1.06582306582307,31.3091853782535
1743291511295,19:38:31.295,-1,1229.30402930403,1.06537906537907,31.3091853782535
1743291511315,19:38:31.315,-1,1298.1684981685,1.06537906537907,31.3091853782535
1743291511334,19:38:31.334,-1,1353.11355311355,1.06493506493506,31.3091853782535
1743291511354,19:38:31.354,-1,1390.47619047619,1.06449106449106,31.3091853782535
1743291511373,19:38:31.373,-1,1414.65201465201,1.06360306360306,31.3091853782535
1743291511393,19:38:31.393,-1,1428.57142857143,1.06271506271506,31.3091853782535
1743291511412,19:38:31.412,-1,1427.10622710623,1.06227106227106,31.3091853782535
1743291511432,19:38:31.432,-1,1435.89743589744,1.06182706182706,31.3091853782535
1743291511451,19:38:31.451,-1,1448.35164835165,1.06182706182706,31.3091853782535
1743291511471,19:38:31.471,-1,1453.47985347985,1.06138306138306,31.3091853782535
1743291511490,19:38:31.490,-1,1439.56043956044,1.06049506049506,31.3091853782535
1743291511510,19:38:31.510,-1,1424.90842490842,1.06005106005106,31.3091853782535
1743291511529,19:38:31.529,-1,1408.79120879121,1.05960705960706,31.3091853782535
1743291511549,19:38:31.549,-1,1396.336996337,1.05960705960706,31.3091853782535
1743291511568,19:38:31.568,-1,1384.61538461538,1.05960705960706,31.3091853782535
1743291511588,19:38:31.588,-1,1364.10256410256,1.05871905871906,31.3091853782535
1743291511607,19:38:31.607,-1,1345.78754578755,1.05871905871906,31.3091853782535
1743291511627,19:38:31.627,-1,1330.40293040293,1.05827505827506,31.3242027553497
1743291511646,19:38:31.646,-1,1306.95970695971,1.05827505827506,31.3242027553497
1743291511666,19:38:31.666,-1,1284.98168498168,1.05783105783106,31.3242027553497
1743291511685,19:38:31.685,-1,1267.39926739927,1.05783105783106,31.3242027553497
1743291511705,19:38:31.705,-1,1268.86446886447,1.05738705738706,31.3242027553497
1743291511724,19:38:31.724,-1,1265.93406593407,1.05694305694306,31.3242027553497
1743291511744,19:38:31.744,-1,1254.94505494505,1.05738705738706,31.3242027553497
1743291511763,19:38:31.763,-1,1241.75824175824,1.05694305694306,31.3242027553497
1743291511783,19:38:31.783,-1,1230.03663003663,1.05694305694306,31.3242027553497
1743291511802,19:38:31.802,-1,1219.78021978022,1.05649905649906,31.3242027553497
1743291511822,19:38:31.822,-1,1202.1978021978,1.05649905649906,31.3242027553497
1743291511841,19:38:31.841,-1,1183.88278388278,1.05649905649906,31.3242027553497
1743291511861,19:38:31.861,-1,1178.02197802198,1.05605505605506,31.3242027553497
1743291511880,19:38:31.880,-1,1181.68498168498,1.05649905649906,31.3242027553497
1743291511900,19:38:31.900,-1,1191.20879120879,1.05649905649906,31.3242027553497
1743291511919,19:38:31.919,-1,1200,1.05694305694306,31.3242027553497
1743291511939,19:38:31.939,-1,1209.52380952381,1.05694305694306,31.3242027553497
1743291511958,19:38:31.958,-1,1194.87179487179,1.05649905649906,31.3242027553497
1743291511978,19:38:31.978,-1,1176.55677655678,1.05649905649906,31.3242027553497
1743291511997,19:38:31.997,-1,1172.89377289377,1.05694305694306,31.3242027553497
1743291512017,19:38:32.017,-1,1168.49816849817,1.05738705738706,31.3242027553497
1743291512036,19:38:32.036,-1,1183.88278388278,1.05783105783106,31.3242027553497
1743291512056,19:38:32.056,-1,1227.83882783883,1.05783105783106,31.3242027553497
1743291512075,19:38:32.075,-1,1288.64468864469,1.05827505827506,31.3242027553497
1743291512095,19:38:32.095,-1,1349.45054945055,1.05871905871906,31.3242027553497
1743291512114,19:38:32.114,-1,1400,1.05916305916306,31.3242027553497
1743291512134,19:38:32.134,-1,1439.56043956044,1.05960705960706,31.3242027553497
1743291512153,19:38:32.153,-1,1460.07326007326,1.06005106005106,31.3242027553497
1743291512173,19:38:32.173,-1,1460.80586080586,1.06005106005106,31.3242027553497
1743291512192,19:38:32.192,-1,1460.80586080586,1.06049506049506,31.3242027553497
1743291512212,19:38:32.212,-1,1463.73626373626,1.06093906093906,31.3242027553497
1743291512231,19:38:32.231,-1,1463.73626373626,1.06182706182706,31.3242027553497
1743291512251,19:38:32.251,-1,1477.65567765568,1.06227106227106,31.3242027553497
1743291512270,19:38:32.270,-1,1477.65567765568,1.06315906315906,31.3242027553497
1743291512290,19:38:32.290,-1,1459.34065934066,1.06360306360306,31.3242027553497
1743291512309,19:38:32.309,-1,1452.01465201465,1.06449106449106,31.3242027553497
1743291512329,19:38:32.329,-1,1435.16483516484,1.06537906537907,31.3242027553497
1743291512348,19:38:32.348,-1,1412.45421245421,1.06626706626707,31.3242027553497
1743291512368,19:38:32.368,-1,1394.87179487179,1.06715506715507,31.3242027553497
1743291512387,19:38:32.387,-1,1382.41758241758,1.06804306804307,31.3242027553497
1743291512407,19:38:32.407,-1,1379.48717948718,1.06893106893107,31.3242027553497
1743291512426,19:38:32.426,-1,1372.89377289377,1.07026307026307,31.3242027553497
1743291512446,19:38:32.446,-1,1358.24175824176,1.07115107115107,31.3242027553497
1743291512465,19:38:32.465,-1,1339.19413919414,1.07248307248307,31.3242027553497
1743291512485,19:38:32.485,-1,1319.41391941392,1.07381507381507,31.3242027553497
1743291512504,19:38:32.504,-1,1302.5641025641,1.07514707514707,31.3242027553497
1743291512524,19:38:32.524,-1,1293.04029304029,1.07647907647908,31.3242027553497
1743291512543,19:38:32.543,-1,1279.85347985348,1.07781107781108,31.3242027553497
1743291512563,19:38:32.563,-1,1251.28205128205,1.07958707958708,31.3242027553497
1743291512582,19:38:32.582,-1,1235.89743589744,1.08136308136308,31.3242027553497
1743291512602,19:38:32.602,-1,1224.17582417582,1.08313908313908,31.3242027553497
1743291512621,19:38:32.621,-1,1223.44322344322,1.08535908535909,31.3542373523815
1743291512641,19:38:32.641,-1,1232.96703296703,1.08757908757909,31.3542373523815
1743291512660,19:38:32.660,-1,1243.95604395604,1.09024309024309,31.3542373523815
1743291512680,19:38:32.680,-1,1249.08424908425,1.09290709290709,31.3542373523815
1743291512699,19:38:32.699,-1,1242.49084249084,1.0955710955711,31.3542373523815
1743291512719,19:38:32.719,-1,1228.57142857143,1.0977910977911,31.3542373523815
1743291512738,19:38:32.738,-1,1225.64102564103,1.0995670995671,31.3542373523815
1743291512758,19:38:32.758,-1,1221.97802197802,1.1017871017871,31.3542373523815
1743291512777,19:38:32.777,-1,1204.3956043956,1.1035631035631,31.3542373523815
1743291512797,19:38:32.797,-1,1183.15018315018,1.10578310578311,31.3542373523815
1743291512816,19:38:32.816,-1,1175.09157509158,1.10800310800311,31.3542373523815
1743291512836,19:38:32.836,-1,1198.5347985348,1.10977910977911,31.3542373523815
1743291512855,19:38:32.855,-1,1242.49084249084,1.11155511155511,31.3542373523815
1743291512875,19:38:32.875,-1,1301.0989010989,1.11377511377511,31.3542373523815
1743291512894,19:38:32.894,-1,1373.62637362637,1.11510711510712,31.3542373523815
1743291512914,19:38:32.914,-1,1435.89743589744,1.11643911643912,31.3542373523815
1743291512933,19:38:32.933,-1,1476.92307692308,1.11777111777112,31.3542373523815
1743291512953,19:38:32.953,-1,1501.0989010989,1.11865911865912,31.3542373523815
1743291512972,19:38:32.972,-1,1525.27472527473,1.11999111999112,31.3542373523815
1743291512992,19:38:32.992,-1,1557.50915750916,1.12087912087912,31.3542373523815
1743291513011,19:38:33.011,-1,1580.21978021978,1.12176712176712,31.3542373523815
1743291513031,19:38:33.031,-1,1600,1.12309912309912,31.3542373523815
1743291513050,19:38:33.050,-1,1624.17582417582,1.12398712398712,31.3542373523815
1743291513070,19:38:33.070,-1,1634.43223443223,1.12531912531913,31.3542373523815
1743291513089,19:38:33.089,-1,1613.91941391941,1.12665112665113,31.3542373523815
1743291513109,19:38:33.109,-1,1586.08058608059,1.12753912753913,31.3542373523815
1743291513128,19:38:33.128,-1,1561.17216117216,1.12887112887113,31.3542373523815
1743291513148,19:38:33.148,-1,1539.92673992674,1.12975912975913,31.3542373523815
1743291513167,19:38:33.167,-1,1524.54212454212,1.13109113109113,31.3542373523815
1743291513187,19:38:33.187,-1,1510.62271062271,1.13197913197913,31.3542373523815
1743291513206,19:38:33.206,-1,1501.8315018315,1.13286713286713,31.3542373523815
1743291513226,19:38:33.226,-1,1486.44688644689,1.13419913419913,31.3542373523815
1743291513245,19:38:33.245,-1,1471.79487179487,1.13508713508713,31.3542373523815
1743291513265,19:38:33.265,-1,1458.60805860806,1.13597513597514,31.3542373523815
1743291513284,19:38:33.284,-1,1451.28205128205,1.13730713730714,31.3542373523815
1743291513304,19:38:33.304,-1,1434.43223443223,1.13819513819514,31.3542373523815
1743291513323,19:38:33.323,-1,1404.3956043956,1.13908313908314,31.3542373523815
1743291513343,19:38:33.343,-1,1385.34798534799,1.13997113997114,31.3542373523815
1743291513362,19:38:33.362,-1,1371.42857142857,1.14085914085914,31.3542373523815
1743291513382,19:38:33.382,-1,1361.90476190476,1.14219114219114,31.3542373523815
1743291513401,19:38:33.401,-1,1347.98534798535,1.14352314352314,31.3542373523815
1743291513421,19:38:33.421,-1,1316.48351648352,1.14441114441114,31.3542373523815
1743291513440,19:38:33.440,-1,1282.78388278388,1.14574314574315,31.3542373523815
1743291513460,19:38:33.460,-1,1271.06227106227,1.14663114663115,31.3542373523815
1743291513479,19:38:33.479,-1,1267.39926739927,1.14796314796315,31.3542373523815
1743291513499,19:38:33.499,-1,1276.92307692308,1.14885114885115,31.3542373523815
1743291513518,19:38:33.518,-1,1298.9010989011,1.15018315018315,31.3542373523815
1743291513538,19:38:33.538,-1,1308.42490842491,1.15151515151515,31.3542373523815
1743291513557,19:38:33.557,-1,1305.49450549451,1.15240315240315,31.3542373523815
1743291513577,19:38:33.577,-1,1286.44688644689,1.15373515373515,31.3542373523815
1743291513596,19:38:33.596,-1,1273.26007326007,1.15506715506716,31.3542373523815
1743291513616,19:38:33.616,-1,1266.66666666667,1.15684315684316,31.374260300654
1743291513635,19:38:33.635,-1,1248.35164835165,1.15773115773116,31.374260300654
1743291513655,19:38:33.655,-1,1219.04761904762,1.15906315906316,31.374260300654
1743291513674,19:38:33.674,-1,1208.05860805861,1.15995115995116,31.374260300654
1743291513694,19:38:33.694,-1,1213.91941391941,1.16128316128316,31.374260300654
1743291513713,19:38:33.713,-1,1235.16483516484,1.16217116217116,31.374260300654
1743291513733,19:38:33.733,-1,1266.66666666667,1.16305916305916,31.374260300654
1743291513752,19:38:33.752,-1,1333.33333333333,1.16350316350316,31.374260300654
1743291513772,19:38:33.772,-1,1442.49084249084,1.16350316350316,31.374260300654
1743291513791,19:38:33.791,-1,1545.05494505494,1.16394716394716,31.374260300654
1743291513811,19:38:33.811,-1,1630.03663003663,1.16394716394716,31.374260300654
1743291513830,19:38:33.830,-1,1700.3663003663,1.16439116439116,31.374260300654
1743291513850,19:38:33.850,-1,1750.91575091575,1.16439116439116,31.374260300654
1743291513869,19:38:33.869,-1,1769.23076923077,1.16439116439116,31.374260300654
1743291513889,19:38:33.889,-1,1774.35897435897,1.16483516483516,31.374260300654
1743291513908,19:38:33.908,-1,1791.20879120879,1.16439116439116,31.374260300654
1743291513928,19:38:33.928,-1,1794.13919413919,1.16483516483516,31.374260300654
1743291513947,19:38:33.947,-1,1802.1978021978,1.16483516483516,31.374260300654
1743291513967,19:38:33.967,-1,1798.5347985348,1.16527916527917,31.374260300654
1743291513986,19:38:33.986,-1,1778.75457875458,1.16572316572317,31.374260300654
1743291514006,19:38:34.006,-1,1746.52014652015,1.16527916527917,31.374260300654
1743291514025,19:38:34.025,-1,1719.41391941392,1.16572316572317,31.374260300654
1743291514045,19:38:34.045,-1,1695.9706959707,1.16572316572317,31.374260300654
1743291514064,19:38:34.064,-1,1673.26007326007,1.16661116661117,31.374260300654
1743291514084,19:38:34.084,-1,1658.60805860806,1.16705516705517,31.374260300654
1743291514103,19:38:34.103,-1,1635.16483516484,1.16705516705517,31.374260300654
1743291514123,19:38:34.123,-1,1621.97802197802,1.16705516705517,31.374260300654
1743291514142,19:38:34.142,-1,1608.05860805861,1.16749916749917,31.374260300654
1743291514162,19:38:34.162,-1,1586.08058608059,1.16749916749917,31.374260300654
1743291514181,19:38:34.181,-1,1565.56776556777,1.16794316794317,31.374260300654
1743291514201,19:38:34.201,-1,1539.92673992674,1.16838716838717,31.374260300654
1743291514220,19:38:34.220,-1,1495.2380952381,1.16838716838717,31.374260300654
1743291514240,19:38:34.240,-1,1455.67765567766,1.16838716838717,31.374260300654
1743291514259,19:38:34.259,-1,1434.43223443223,1.16883116883117,31.374260300654
1743291514279,19:38:34.279,-1,1425.64102564103,1.16838716838717,31.374260300654
1743291514298,19:38:34.298,-1,1414.65201465201,1.16883116883117,31.374260300654
1743291514318,19:38:34.318,-1,1402.1978021978,1.16927516927517,31.374260300654
1743291514337,19:38:34.337,-1,1386.81318681319,1.16927516927517,31.374260300654
1743291514357,19:38:34.357,-1,1366.30036630037,1.16883116883117,31.374260300654
1743291514376,19:38:34.376,-1,1344.32234432234,1.16927516927517,31.374260300654
1743291514396,19:38:34.396,-1,1333.33333333333,1.16927516927517,31.374260300654
1743291514415,19:38:34.415,-1,1320.87912087912,1.16927516927517,31.374260300654
1743291514435,19:38:34.435,-1,1301.8315018315,1.16927516927517,31.374260300654
1743291514454,19:38:34.454,-1,1293.04029304029,1.16883116883117,31.374260300654
1743291514474,19:38:34.474,-1,1294.50549450549,1.16883116883117,31.374260300654
1743291514493,19:38:34.493,-1,1294.50549450549,1.16927516927517,31.374260300654
1743291514513,19:38:34.513,-1,1287.17948717949,1.16883116883117,31.374260300654
1743291514532,19:38:34.532,-1,1266.66666666667,1.16883116883117,31.374260300654
1743291514552,19:38:34.552,-1,1257.14285714286,1.16883116883117,31.374260300654
1743291514571,19:38:34.571,-1,1246.88644688645,1.16883116883117,31.374260300654
1743291514591,19:38:34.591,-1,1257.14285714286,1.16838716838717,31.374260300654
1743291514610,19:38:34.610,-1,1268.86446886447,1.16838716838717,31.3942831557943
1743291514630,19:38:34.630,-1,1268.13186813187,1.16838716838717,31.3942831557943
1743291514649,19:38:34.649,-1,1253.47985347985,1.16927516927517,31.3942831557943
1743291514669,19:38:34.669,-1,1281.31868131868,1.16927516927517,31.3942831557943
1743291514688,19:38:34.688,-1,1376.55677655678,1.16883116883117,31.3942831557943
1743291514708,19:38:34.708,-1,1509.89010989011,1.16883116883117,31.3942831557943
1743291514727,19:38:34.727,-1,1632.23443223443,1.16794316794317,31.3942831557943
1743291514747,19:38:34.747,-1,1732.60073260073,1.16749916749917,31.3942831557943
1743291514766,19:38:34.766,-1,1789.74358974359,1.16705516705517,31.3942831557943
1743291514786,19:38:34.786,-1,1843.95604395604,1.16661116661117,31.3942831557943
1743291514805,19:38:34.805,-1,1893.04029304029,1.16572316572317,31.3942831557943
1743291514825,19:38:34.825,-1,1928.93772893773,1.16527916527917,31.3942831557943
1743291514844,19:38:34.844,-1,1956.77655677656,1.16483516483516,31.3942831557943
1743291514864,19:38:34.864,-1,1963.36996336996,1.16439116439116,31.3942831557943
1743291514883,19:38:34.883,-1,1950.91575091575,1.16439116439116,31.3942831557943
1743291514903,19:38:34.903,-1,1930.40293040293,1.16394716394716,31.3942831557943
1743291514922,19:38:34.922,-1,1894.50549450549,1.16350316350316,31.3942831557943
1743291514942,19:38:34.942,-1,1838.09523809524,1.16305916305916,31.3942831557943
1743291514961,19:38:34.961,-1,1775.82417582418,1.16305916305916,31.3942831557943
1743291514981,19:38:34.981,-1,1742.85714285714,1.16305916305916,31.3942831557943
1743291515000,19:38:35.000,-1,1716.48351648352,1.16305916305916,31.3942831557943
1743291515020,19:38:35.020,-1,1699.6336996337,1.16261516261516,31.3942831557943
1743291515039,19:38:35.039,-1,1682.05128205128,1.16261516261516,31.3942831557943
1743291515059,19:38:35.059,-1,1644.68864468864,1.16261516261516,31.3942831557943
1743291515078,19:38:35.078,-1,1604.3956043956,1.16261516261516,31.3942831557943
1743291515098,19:38:35.098,-1,1567.03296703297,1.16261516261516,31.3942831557943
1743291515117,19:38:35.117,-1,1528.20512820513,1.16261516261516,31.3942831557943
1743291515137,19:38:35.137,-1,1505.49450549451,1.16305916305916,31.3942831557943
1743291515156,19:38:35.156,-1,1482.05128205128,1.16305916305916,31.3942831557943
1743291515176,19:38:35.176,-1,1457.14285714286,1.16305916305916,31.3942831557943
1743291515195,19:38:35.195,-1,1433.69963369963,1.16350316350316,31.3942831557943
1743291515215,19:38:35.215,-1,1410.25641025641,1.16350316350316,31.3942831557943
1743291515234,19:38:35.234,-1,1391.20879120879,1.16350316350316,31.3942831557943
1743291515254,19:38:35.254,-1,1375.09157509157,1.16394716394716,31.3942831557943
1743291515273,19:38:35.273,-1,1342.12454212454,1.16394716394716,31.3942831557943
1743291515293,19:38:35.293,-1,1305.49450549451,1.16394716394716,31.3942831557943
1743291515312,19:38:35.312,-1,1280.58608058608,1.16439116439116,31.3942831557943
1743291515332,19:38:35.332,-1,1282.05128205128,1.16439116439116,31.3942831557943
1743291515351,19:38:35.351,-1,1273.26007326007,1.16439116439116,31.3942831557943
1743291515371,19:38:35.371,-1,1261.53846153846,1.16439116439116,31.3942831557943
1743291515390,19:38:35.390,-1,1252.01465201465,1.16439116439116,31.3942831557943
1743291515410,19:38:35.410,-1,1244.68864468864,1.16483516483516,31.3942831557943
1743291515429,19:38:35.429,-1,1227.83882783883,1.16527916527917,31.3942831557943
1743291515449,19:38:35.449,-1,1210.25641025641,1.16572316572317,31.3942831557943
1743291515468,19:38:35.468,-1,1201.4652014652,1.16616716616717,31.3942831557943
1743291515488,19:38:35.488,-1,1212.45421245421,1.16616716616717,31.3942831557943
1743291515507,19:38:35.507,-1,1222.71062271062,1.16616716616717,31.3942831557943
1743291515527,19:38:35.527,-1,1213.91941391941,1.16661116661117,31.3942831557943
1743291515546,19:38:35.546,-1,1200,1.16705516705517,31.3942831557943
1743291515566,19:38:35.566,-1,1197.0695970696,1.16749916749917,31.3942831557943
1743291515585,19:38:35.585,-1,1201.4652014652,1.16749916749917,31.3942831557943
1743291515605,19:38:35.605,-1,1218.31501831502,1.16794316794317,31.4093002360314
1743291515624,19:38:35.624,-1,1271.79487179487,1.16749916749917,31.4093002360314
1743291515644,19:38:35.644,-1,1367.03296703297,1.16749916749917,31.4093002360314
1743291515663,19:38:35.663,-1,1485.71428571429,1.16705516705517,31.4093002360314
1743291515683,19:38:35.683,-1,1593.40659340659,1.16705516705517,31.4093002360314
1743291515702,19:38:35.702,-1,1666.66666666667,1.16661116661117,31.4093002360314
1743291515722,19:38:35.722,-1,1720.14652014652,1.16572316572317,31.4093002360314
1743291515741,19:38:35.741,-1,1748.71794871795,1.16483516483516,31.4093002360314
1743291515761,19:38:35.761,-1,1747.98534798535,1.16439116439116,31.4093002360314
1743291515780,19:38:35.780,-1,1741.39194139194,1.16394716394716,31.4093002360314
1743291515800,19:38:35.800,-1,1723.07692307692,1.16350316350316,31.4093002360314
1743291515819,19:38:35.819,-1,1711.35531135531,1.16305916305916,31.4093002360314
1743291515839,19:38:35.839,-1,1697.4358974359,1.16261516261516,31.4093002360314
1743291515858,19:38:35.858,-1,1664.46886446886,1.16261516261516,31.4093002360314
1743291515878,19:38:35.878,-1,1608.79120879121,1.16261516261516,31.4093002360314
1743291515897,19:38:35.897,-1,1550.18315018315,1.16261516261516,31.4093002360314
1743291515917,19:38:35.917,-1,1506.95970695971,1.16217116217116,31.4093002360314
1743291515936,19:38:35.936,-1,1490.84249084249,1.16261516261516,31.4093002360314
1743291515956,19:38:35.956,-1,1482.05128205128,1.16217116217116,31.4093002360314
1743291515975,19:38:35.975,-1,1471.06227106227,1.16217116217116,31.4093002360314
1743291515995,19:38:35.995,-1,1465.20146520146,1.16172716172716,31.4093002360314
1743291516014,19:38:36.014,-1,1444.68864468864,1.16172716172716,31.4093002360314
1743291516034,19:38:36.034,-1,1430.03663003663,1.16172716172716,31.4093002360314
1743291516053,19:38:36.053,-1,1417.58241758242,1.16172716172716,31.4093002360314
1743291516073,19:38:36.073,-1,1400.7326007326,1.16128316128316,31.4093002360314
1743291516092,19:38:36.092,-1,1369.23076923077,1.16128316128316,31.4093002360314
1743291516112,19:38:36.112,-1,1341.39194139194,1.16128316128316,31.4093002360314
1743291516131,19:38:36.131,-1,1302.5641025641,1.16128316128316,31.4093002360314
1743291516151,19:38:36.151,-1,1278.38827838828,1.16083916083916,31.4093002360314
1743291516170,19:38:36.170,-1,1260.80586080586,1.16083916083916,31.4093002360314
1743291516190,19:38:36.190,-1,1244.68864468864,1.16083916083916,31.4093002360314
1743291516209,19:38:36.209,-1,1235.16483516484,1.16039516039516,31.4093002360314
1743291516229,19:38:36.229,-1,1235.89743589744,1.16039516039516,31.4093002360314
1743291516248,19:38:36.248,-1,1239.56043956044,1.16039516039516,31.4093002360314
1743291516268,19:38:36.268,-1,1233.69963369963,1.16039516039516,31.4093002360314
1743291516287,19:38:36.287,-1,1210.25641025641,1.16039516039516,31.4093002360314
1743291516307,19:38:36.307,-1,1197.0695970696,1.15995115995116,31.4093002360314
1743291516326,19:38:36.326,-1,1195.6043956044,1.15995115995116,31.4093002360314
1743291516346,19:38:36.346,-1,1197.8021978022,1.15995115995116,31.4093002360314
1743291516365,19:38:36.365,-1,1184.61538461538,1.15995115995116,31.4093002360314
1743291516385,19:38:36.385,-1,1178.75457875458,1.15950715950716,31.4093002360314
1743291516404,19:38:36.404,-1,1169.96336996337,1.15950715950716,31.4093002360314
1743291516424,19:38:36.424,-1,1161.90476190476,1.15906315906316,31.4093002360314
1743291516443,19:38:36.443,-1,1172.89377289377,1.15906315906316,31.4093002360314
1743291516463,19:38:36.463,-1,1215.38461538462,1.15906315906316,31.4093002360314
1743291516482,19:38:36.482,-1,1273.99267399267,1.15906315906316,31.4093002360314
1743291516502,19:38:36.502,-1,1361.17216117216,1.15817515817516,31.4093002360314
1743291516521,19:38:36.521,-1,1460.80586080586,1.15773115773116,31.4093002360314
1743291516541,19:38:36.541,-1,1541.39194139194,1.15639915639916,31.4093002360314
1743291516560,19:38:36.560,-1,1586.08058608059,1.15551115551116,31.4093002360314
1743291516580,19:38:36.580,-1,1593.40659340659,1.15506715506716,31.4093002360314
1743291516599,19:38:36.599,-1,1575.09157509157,1.15417915417915,31.434328586678
1743291516619,19:38:36.619,-1,1569.23076923077,1.15329115329115,31.434328586678
1743291516638,19:38:36.638,-1,1558.97435897436,1.15240315240315,31.434328586678
1743291516658,19:38:36.658,-1,1549.45054945055,1.15151515151515,31.434328586678
1743291516677,19:38:36.677,-1,1534.06593406593,1.15107115107115,31.434328586678
1743291516697,19:38:36.697,-1,1518.68131868132,1.15018315018315,31.434328586678
1743291516716,19:38:36.716,-1,1476.19047619048,1.14973914973915,31.434328586678
1743291516736,19:38:36.736,-1,1446.15384615385,1.14929514929515,31.434328586678
1743291516755,19:38:36.755,-1,1416.84981684982,1.14885114885115,31.434328586678
1743291516775,19:38:36.775,-1,1395.6043956044,1.14885114885115,31.434328586678
1743291516794,19:38:36.794,-1,1381.68498168498,1.14840714840715,31.434328586678
1743291516814,19:38:36.814,-1,1376.55677655678,1.14796314796315,31.434328586678
1743291516833,19:38:36.833,-1,1367.76556776557,1.14751914751915,31.434328586678
1743291516853,19:38:36.853,-1,1353.84615384615,1.14663114663115,31.434328586678
1743291516872,19:38:36.872,-1,1347.25274725275,1.14618714618715,31.434328586678
1743291516892,19:38:36.892,-1,1338.46153846154,1.14574314574315,31.434328586678
1743291516911,19:38:36.911,-1,1329.67032967033,1.14485514485514,31.434328586678
1743291516931,19:38:36.931,-1,1320.14652014652,1.14441114441114,31.434328586678
1743291516950,19:38:36.950,-1,1298.1684981685,1.14441114441114,31.434328586678
1743291516970,19:38:36.970,-1,1273.26007326007,1.14352314352314,31.434328586678
1743291516989,19:38:36.989,-1,1239.56043956044,1.14307914307914,31.434328586678
1743291517009,19:38:37.009,-1,1224.90842490842,1.14263514263514,31.434328586678
1743291517028,19:38:37.028,-1,1232.96703296703,1.14219114219114,31.434328586678
1743291517048,19:38:37.048,-1,1247.61904761905,1.14219114219114,31.434328586678
1743291517067,19:38:37.067,-1,1232.96703296703,1.14219114219114,31.434328586678
1743291517087,19:38:37.087,-1,1211.72161172161,1.14174714174714,31.434328586678
1743291517106,19:38:37.106,-1,1200,1.14130314130314,31.434328586678
1743291517126,19:38:37.126,-1,1196.336996337,1.14085914085914,31.434328586678
1743291517145,19:38:37.145,-1,1199.2673992674,1.14041514041514,31.434328586678
1743291517165,19:38:37.165,-1,1190.47619047619,1.13997113997114,31.434328586678
1743291517184,19:38:37.184,-1,1181.68498168498,1.13997113997114,31.434328586678
1743291517204,19:38:37.204,-1,1175.09157509158,1.13997113997114,31.434328586678
1743291517223,19:38:37.223,-1,1172.89377289377,1.13952713952714,31.434328586678
1743291517243,19:38:37.243,-1,1170.69597069597,1.13908313908314,31.434328586678
1743291517262,19:38:37.262,-1,1163.36996336996,1.13863913863914,31.434328586678
1743291517282,19:38:37.282,-1,1167.76556776557,1.13819513819514,31.434328586678
1743291517301,19:38:37.301,-1,1213.91941391941,1.13775113775114,31.434328586678
1743291517321,19:38:37.321,-1,1286.44688644689,1.13730713730714,31.434328586678
1743291517340,19:38:37.340,-1,1372.16117216117,1.13641913641914,31.434328586678
1743291517360,19:38:37.360,-1,1460.80586080586,1.13553113553114,31.434328586678
1743291517379,19:38:37.379,-1,1509.15750915751,1.13464313464313,31.434328586678
1743291517399,19:38:37.399,-1,1542.85714285714,1.13375513375513,31.434328586678
1743291517418,19:38:37.418,-1,1571.42857142857,1.13197913197913,31.434328586678
1743291517438,19:38:37.438,-1,1576.55677655678,1.13109113109113,31.434328586678
1743291517457,19:38:37.457,-1,1561.90476190476,1.13020313020313,31.434328586678
1743291517477,19:38:37.477,-1,1547.98534798535,1.12975912975913,31.434328586678
1743291517496,19:38:37.496,-1,1531.13553113553,1.12887112887113,31.434328586678
1743291517516,19:38:37.516,-1,1530.40293040293,1.12798312798313,31.434328586678
1743291517535,19:38:37.535,-1,1526.73992673993,1.12753912753913,31.434328586678
1743291517555,19:38:37.555,-1,1509.89010989011,1.12665112665113,31.434328586678
1743291517574,19:38:37.574,-1,1492.30769230769,1.12576312576313,31.434328586678
1743291517594,19:38:37.594,-1,1460.80586080586,1.12576312576313,31.4543511624215
1743291517613,19:38:37.613,-1,1429.30402930403,1.12531912531913,31.4543511624215
1743291517633,19:38:37.633,-1,1414.65201465201,1.12487512487512,31.4543511624215
1743291517652,19:38:37.652,-1,1402.9304029304,1.12443112443112,31.4543511624215
1743291517672,19:38:37.672,-1,1399.2673992674,1.12398712398712,31.4543511624215
1743291517691,19:38:37.691,-1,1402.9304029304,1.12309912309912,31.4543511624215
1743291517711,19:38:37.711,-1,1391.94139194139,1.12265512265512,31.4543511624215
1743291517730,19:38:37.730,-1,1370.69597069597,1.12221112221112,31.4543511624215
1743291517750,19:38:37.750,-1,1348.71794871795,1.12176712176712,31.4543511624215
1743291517769,19:38:37.769,-1,1323.07692307692,1.12132312132312,31.4543511624215
1743291517789,19:38:37.789,-1,1303.2967032967,1.12087912087912,31.4543511624215
1743291517808,19:38:37.808,-1,1293.04029304029,1.12043512043512,31.4543511624215
1743291517828,19:38:37.828,-1,1300.3663003663,1.11999111999112,31.4543511624215
1743291517847,19:38:37.847,-1,1309.89010989011,1.11954711954712,31.4543511624215
1743291517867,19:38:37.867,-1,1305.49450549451,1.11999111999112,31.4543511624215
1743291517886,19:38:37.886,-1,1276.19047619048,1.11910311910312,31.4543511624215
1743291517906,19:38:37.906,-1,1249.81684981685,1.11865911865912,31.4543511624215
1743291517925,19:38:37.925,-1,1248.35164835165,1.11821511821512,31.4543511624215
1743291517945,19:38:37.945,-1,1241.75824175824,1.11777111777112,31.4543511624215
1743291517964,19:38:37.964,-1,1218.31501831502,1.11777111777112,31.4543511624215
1743291517984,19:38:37.984,-1,1200,1.11732711732712,31.4543511624215
1743291518003,19:38:38.003,-1,1187.54578754579,1.11688311688312,31.4543511624215
1743291518023,19:38:38.023,-1,1195.6043956044,1.11643911643912,31.4543511624215
1743291518042,19:38:38.042,-1,1207.32600732601,1.11599511599512,31.4543511624215
1743291518062,19:38:38.062,-1,1200.7326007326,1.11599511599512,31.4543511624215
1743291518081,19:38:38.081,-1,1184.61538461538,1.11555111555112,31.4543511624215
1743291518101,19:38:38.101,-1,1186.08058608059,1.11555111555112,31.4543511624215
1743291518120,19:38:38.120,-1,1190.47619047619,1.11510711510712,31.4543511624215
1743291518140,19:38:38.140,-1,1197.8021978022,1.11466311466311,31.4543511624215
1743291518159,19:38:38.159,-1,1211.72161172161,1.11421911421911,31.4543511624215
1743291518179,19:38:38.179,-1,1235.16483516484,1.11421911421911,31.4543511624215
1743291518198,19:38:38.198,-1,1273.99267399267,1.11377511377511,31.4543511624215
1743291518218,19:38:38.218,-1,1339.19413919414,1.11333111333111,31.4543511624215
1743291518237,19:38:38.237,-1,1416.84981684982,1.11244311244311,31.4543511624215
1743291518257,19:38:38.257,-1,1479.12087912088,1.11155511155511,31.4543511624215
1743291518276,19:38:38.276,-1,1523.07692307692,1.11022311022311,31.4543511624215
1743291518296,19:38:38.296,-1,1550.18315018315,1.10933510933511,31.4543511624215
1743291518315,19:38:38.315,-1,1573.62637362637,1.10844710844711,31.4543511624215
1743291518335,19:38:38.335,-1,1600,1.10755910755911,31.4543511624215
1743291518354,19:38:38.354,-1,1616.11721611722,1.10667110667111,31.4543511624215
1743291518374,19:38:38.374,-1,1613.18681318681,1.10578310578311,31.4543511624215
1743291518393,19:38:38.393,-1,1602.9304029304,1.1048951048951,31.4543511624215
1743291518413,19:38:38.413,-1,1584.61538461538,1.1040071040071,31.4543511624215
1743291518432,19:38:38.432,-1,1567.76556776557,1.1035631035631,31.4543511624215
1743291518452,19:38:38.452,-1,1540.65934065934,1.1031191031191,31.4543511624215
1743291518472,19:38:38.471,-1,1512.08791208791,1.1026751026751,31.4543511624215
1743291518491,19:38:38.491,-1,1467.39926739927,1.1017871017871,31.4543511624215
1743291518511,19:38:38.510,-1,1439.56043956044,1.1013431013431,31.4543511624215
1743291518530,19:38:38.530,-1,1438.09523809524,1.1013431013431,31.4543511624215
1743291518550,19:38:38.549,-1,1431.50183150183,1.1008991008991,31.4543511624215
1743291518569,19:38:38.569,-1,1438.09523809524,1.1004551004551,31.4543511624215
1743291518589,19:38:38.588,-1,1432.96703296703,1.0995670995671,31.4743736450328
1743291518608,19:38:38.608,-1,1422.71062271062,1.0991230991231,31.4743736450328
1743291518628,19:38:38.628,-1,1410.98901098901,1.0986790986791,31.4743736450328
1743291518647,19:38:38.647,-1,1390.47619047619,1.0986790986791,31.4743736450328
1743291518667,19:38:38.667,-1,1367.76556776557,1.0982350982351,31.4743736450328
1743291518686,19:38:38.686,-1,1347.25274725275,1.0977910977911,31.4743736450328
1743291518706,19:38:38.706,-1,1317.21611721612,1.0977910977911,31.4743736450328
1743291518725,19:38:38.725,-1,1279.12087912088,1.0973470973471,31.4743736450328
1743291518745,19:38:38.745,-1,1257.87545787546,1.0969030969031,31.4743736450328
1743291518764,19:38:38.764,-1,1254.94505494505,1.0969030969031,31.4743736450328
1743291518784,19:38:38.784,-1,1256.41025641026,1.0969030969031,31.4743736450328
1743291518803,19:38:38.803,-1,1243.22344322344,1.0964590964591,31.4743736450328
1743291518823,19:38:38.823,-1,1225.64102564103,1.0960150960151,31.4743736450328
1743291518842,19:38:38.842,-1,1213.91941391941,1.0960150960151,31.4743736450328
1743291518862,19:38:38.862,-1,1216.11721611722,1.0955710955711,31.4743736450328
1743291518881,19:38:38.881,-1,1229.30402930403,1.0955710955711,31.4743736450328
1743291518901,19:38:38.901,-1,1226.37362637363,1.0951270951271,31.4743736450328
1743291518920,19:38:38.920,-1,1244.68864468864,1.0951270951271,31.4743736450328
1743291518940,19:38:38.940,-1,1260.80586080586,1.09468309468309,31.4743736450328
1743291518959,19:38:38.959,-1,1253.47985347985,1.09468309468309,31.4743736450328
1743291518979,19:38:38.979,-1,1227.83882783883,1.09423909423909,31.4743736450328
1743291518998,19:38:38.998,-1,1217.58241758242,1.09423909423909,31.4743736450328
1743291519018,19:38:39.018,-1,1210.98901098901,1.09423909423909,31.4743736450328
1743291519037,19:38:39.037,-1,1205.86080586081,1.09379509379509,31.4743736450328
1743291519057,19:38:39.057,-1,1196.336996337,1.09379509379509,31.4743736450328
1743291519076,19:38:39.076,-1,1198.5347985348,1.09379509379509,31.4743736450328
1743291519096,19:38:39.096,-1,1227.83882783883,1.09290709290709,31.4743736450328
1743291519115,19:38:39.115,-1,1287.91208791209,1.09290709290709,31.4743736450328
1743291519135,19:38:39.135,-1,1360.43956043956,1.09246309246309,31.4743736450328
1743291519154,19:38:39.154,-1,1432.23443223443,1.09157509157509,31.4743736450328
1743291519174,19:38:39.174,-1,1490.10989010989,1.09068709068709,31.4743736450328
1743291519193,19:38:39.193,-1,1515.01831501831,1.08979908979909,31.4743736450328
1743291519213,19:38:39.213,-1,1528.93772893773,1.08891108891109,31.4743736450328
1743291519232,19:38:39.232,-1,1542.85714285714,1.08802308802309,31.4743736450328
1743291519252,19:38:39.252,-1,1541.39194139194,1.08713508713509,31.4743736450328
1743291519271,19:38:39.271,-1,1554.57875457875,1.08624708624709,31.4743736450328
1743291519291,19:38:39.291,-1,1561.90476190476,1.08580308580309,31.4743736450328
1743291519310,19:38:39.310,-1,1570.69597069597,1.08491508491508,31.4743736450328
1743291519330,19:38:39.330,-1,1564.10256410256,1.08447108447108,31.4743736450328
1743291519349,19:38:39.349,-1,1539.92673992674,1.08402708402708,31.4743736450328
1743291519369,19:38:39.369,-1,1512.82051282051,1.08358308358308,31.4743736450328
1743291519388,19:38:39.388,-1,1490.10989010989,1.08269508269508,31.4743736450328
1743291519408,19:38:39.408,-1,1479.12087912088,1.08225108225108,31.4743736450328
1743291519427,19:38:39.427,-1,1474.72527472527,1.08225108225108,31.4743736450328
1743291519447,19:38:39.447,-1,1473.26007326007,1.08180708180708,31.4743736450328
1743291519466,19:38:39.466,-1,1452.01465201465,1.08180708180708,31.4743736450328
1743291519486,19:38:39.486,-1,1411.72161172161,1.08136308136308,31.4743736450328
1743291519505,19:38:39.505,-1,1391.94139194139,1.08091908091908,31.4743736450328
1743291519525,19:38:39.525,-1,1389.74358974359,1.08047508047508,31.4743736450328
1743291519544,19:38:39.544,-1,1382.41758241758,1.08003108003108,31.4743736450328
1743291519564,19:38:39.564,-1,1371.42857142857,1.08003108003108,31.4743736450328
1743291519583,19:38:39.583,-1,1354.57875457875,1.07958707958708,31.4793792511337
1743291519603,19:38:39.603,-1,1336.26373626374,1.07958707958708,31.4793792511337
1743291519622,19:38:39.622,-1,1312.82051282051,1.07914307914308,31.4793792511337
1743291519642,19:38:39.642,-1,1300.3663003663,1.07914307914308,31.4793792511337
1743291519661,19:38:39.661,-1,1295.2380952381,1.07869907869908,31.4793792511337
1743291519681,19:38:39.681,-1,1290.84249084249,1.07914307914308,31.4793792511337
1743291519700,19:38:39.700,-1,1286.44688644689,1.07869907869908,31.4793792511337
1743291519720,19:38:39.720,-1,1288.64468864469,1.07869907869908,31.4793792511337
1743291519739,19:38:39.739,-1,1287.17948717949,1.07825507825508,31.4793792511337
1743291519759,19:38:39.759,-1,1275.45787545788,1.07825507825508,31.4793792511337
1743291519778,19:38:39.778,-1,1273.26007326007,1.07781107781108,31.4793792511337
1743291519798,19:38:39.798,-1,1267.39926739927,1.07825507825508,31.4793792511337
1743291519817,19:38:39.817,-1,1246.15384615385,1.07781107781108,31.4793792511337
1743291519837,19:38:39.837,-1,1219.78021978022,1.07736707736708,31.4793792511337
1743291519856,19:38:39.856,-1,1217.58241758242,1.07736707736708,31.4793792511337
1743291519876,19:38:39.876,-1,1237.36263736264,1.07692307692308,31.4793792511337
1743291519895,19:38:39.895,-1,1241.02564102564,1.07692307692308,31.4793792511337
1743291519915,19:38:39.915,-1,1223.44322344322,1.07692307692308,31.4793792511337
1743291519934,19:38:39.934,-1,1229.30402930403,1.07692307692308,31.4793792511337
1743291519954,19:38:39.954,-1,1252.74725274725,1.07647907647908,31.4793792511337
1743291519973,19:38:39.973,-1,1284.98168498168,1.07603507603508,31.4793792511337
1743291519993,19:38:39.993,-1,1328.20512820513,1.07603507603508,31.4793792511337
1743291520012,19:38:40.012,-1,1376.55677655678,1.07559107559108,31.4793792511337
1743291520032,19:38:40.032,-1,1435.89743589744,1.07470307470307,31.4793792511337
1743291520051,19:38:40.051,-1,1493.77289377289,1.07425907425907,31.4793792511337
1743291520071,19:38:40.071,-1,1538.46153846154,1.07292707292707,31.4793792511337
1743291520090,19:38:40.090,-1,1567.03296703297,1.07248307248307,31.4793792511337
1743291520110,19:38:40.110,-1,1582.41758241758,1.07159507159507,31.4793792511337
1743291520129,19:38:40.129,-1,1572.89377289377,1.07115107115107,31.4793792511337
1743291520149,19:38:40.149,-1,1555.31135531136,1.07070707070707,31.4793792511337
1743291520168,19:38:40.168,-1,1553.84615384615,1.06981906981907,31.4793792511337
1743291520188,19:38:40.188,-1,1569.96336996337,1.06937506937507,31.4793792511337
1743291520207,19:38:40.207,-1,1572.16117216117,1.06893106893107,31.4793792511337
1743291520227,19:38:40.227,-1,1562.63736263736,1.06848706848707,31.4793792511337
1743291520246,19:38:40.246,-1,1554.57875457875,1.06804306804307,31.4793792511337
1743291520266,19:38:40.266,-1,1534.79853479853,1.06804306804307,31.4793792511337
1743291520285,19:38:40.285,-1,1514.28571428571,1.06759906759907,31.4793792511337
1743291520305,19:38:40.305,-1,1504.0293040293,1.06759906759907,31.4793792511337
1743291520324,19:38:40.324,-1,1500.3663003663,1.06715506715507,31.4793792511337
1743291520344,19:38:40.344,-1,1492.30769230769,1.06715506715507,31.4793792511337
1743291520363,19:38:40.363,-1,1470.32967032967,1.06671106671107,31.4793792511337
1743291520383,19:38:40.383,-1,1456.41025641026,1.06626706626707,31.4793792511337
1743291520402,19:38:40.402,-1,1438.09523809524,1.06582306582307,31.4793792511337
1743291520422,19:38:40.422,-1,1430.03663003663,1.06537906537907,31.4793792511337
1743291520441,19:38:40.441,-1,1414.65201465201,1.06537906537907,31.4793792511337
1743291520461,19:38:40.461,-1,1402.1978021978,1.06493506493506,31.4793792511337
1743291520480,19:38:40.480,-1,1388.27838827839,1.06493506493506,31.4793792511337
1743291520500,19:38:40.500,-1,1378.75457875458,1.06449106449106,31.4793792511337
1743291520519,19:38:40.519,-1,1353.11355311355,1.06449106449106,31.4793792511337
1743291520539,19:38:40.539,-1,1334.79853479853,1.06449106449106,31.4793792511337
1743291520558,19:38:40.558,-1,1327.47252747253,1.06404706404706,31.4793792511337
1743291520578,19:38:40.578,-1,1317.21611721612,1.06404706404706,31.5044071943266
1743291520597,19:38:40.597,-1,1301.0989010989,1.06449106449106,31.5044071943266
1743291520617,19:38:40.617,-1,1293.77289377289,1.06404706404706,31.5044071943266
1743291520636,19:38:40.636,-1,1290.84249084249,1.06404706404706,31.5044071943266
1743291520656,19:38:40.656,-1,1289.37728937729,1.06360306360306,31.5044071943266
1743291520675,19:38:40.675,-1,1285.71428571429,1.06360306360306,31.5044071943266
1743291520695,19:38:40.695,-1,1283.51648351648,1.06360306360306,31.5044071943266
1743291520714,19:38:40.714,-1,1277.65567765568,1.06360306360306,31.5044071943266
1743291520734,19:38:40.734,-1,1293.77289377289,1.06360306360306,31.5044071943266
1743291520753,19:38:40.753,-1,1327.47252747253,1.06315906315906,31.5044071943266
1743291520773,19:38:40.773,-1,1375.09157509157,1.06271506271506,31.5044071943266
1743291520792,19:38:40.792,-1,1424.90842490842,1.06271506271506,31.5044071943266
1743291520812,19:38:40.812,-1,1488.64468864469,1.06227106227106,31.5044071943266
1743291520831,19:38:40.831,-1,1550.18315018315,1.06182706182706,31.5044071943266
1743291520851,19:38:40.851,-1,1579.48717948718,1.06093906093906,31.5044071943266
1743291520870,19:38:40.870,-1,1573.62637362637,1.06005106005106,31.5044071943266
1743291520890,19:38:40.890,-1,1558.24175824176,1.05916305916306,31.5044071943266
1743291520909,19:38:40.909,-1,1564.83516483516,1.05916305916306,31.5044071943266
1743291520929,19:38:40.929,-1,1572.16117216117,1.05871905871906,31.5044071943266
1743291520948,19:38:40.948,-1,1578.02197802198,1.05871905871906,31.5044071943266
1743291520968,19:38:40.968,-1,1578.75457875458,1.05783105783106,31.5044071943266
1743291520987,19:38:40.987,-1,1560.43956043956,1.05738705738706,31.5044071943266
1743291521007,19:38:41.007,-1,1536.99633699634,1.05694305694306,31.5044071943266
1743291521026,19:38:41.026,-1,1516.48351648352,1.05694305694306,31.5044071943266
1743291521046,19:38:41.046,-1,1499.6336996337,1.05649905649906,31.5044071943266
1743291521065,19:38:41.065,-1,1498.1684981685,1.05649905649906,31.5044071943266
1743291521085,19:38:41.085,-1,1485.71428571429,1.05605505605506,31.5044071943266
1743291521104,19:38:41.104,-1,1471.06227106227,1.05561105561106,31.5044071943266
1743291521124,19:38:41.124,-1,1460.07326007326,1.05561105561106,31.5044071943266
1743291521143,19:38:41.143,-1,1446.15384615385,1.05561105561106,31.5044071943266
1743291521163,19:38:41.163,-1,1421.24542124542,1.05516705516705,31.5044071943266
1743291521182,19:38:41.182,-1,1391.20879120879,1.05516705516705,31.5044071943266
1743291521202,19:38:41.202,-1,1369.96336996337,1.05472305472305,31.5044071943266
1743291521221,19:38:41.221,-1,1358.97435897436,1.05472305472305,31.5044071943266
1743291521241,19:38:41.241,-1,1351.64835164835,1.05427905427905,31.5044071943266
1743291521260,19:38:41.260,-1,1342.85714285714,1.05427905427905,31.5044071943266
1743291521280,19:38:41.280,-1,1338.46153846154,1.05427905427905,31.5044071943266
1743291521299,19:38:41.299,-1,1331.86813186813,1.05427905427905,31.5044071943266
1743291521319,19:38:41.319,-1,1323.07692307692,1.05427905427905,31.5044071943266
1743291521338,19:38:41.338,-1,1300.3663003663,1.05427905427905,31.5044071943266
1743291521358,19:38:41.358,-1,1284.24908424908,1.05383505383505,31.5044071943266
1743291521377,19:38:41.377,-1,1277.65567765568,1.05383505383505,31.5044071943266
1743291521397,19:38:41.397,-1,1277.65567765568,1.05383505383505,31.5044071943266
1743291521416,19:38:41.416,-1,1268.86446886447,1.05383505383505,31.5044071943266
1743291521436,19:38:41.436,-1,1242.49084249084,1.05383505383505,31.5044071943266
1743291521455,19:38:41.455,-1,1217.58241758242,1.05383505383505,31.5044071943266
1743291521475,19:38:41.475,-1,1213.91941391941,1.05383505383505,31.5044071943266
1743291521494,19:38:41.494,-1,1242.49084249084,1.05383505383505,31.5044071943266
1743291521514,19:38:41.514,-1,1301.8315018315,1.05383505383505,31.5044071943266
1743291521533,19:38:41.533,-1,1372.89377289377,1.05383505383505,31.5044071943266
1743291521553,19:38:41.553,-1,1452.74725274725,1.05339105339105,31.5044071943266
1743291521572,19:38:41.572,-1,1536.26373626374,1.05294705294705,31.5244294441072
1743291521592,19:38:41.592,-1,1606.59340659341,1.05205905205905,31.5244294441072
1743291521611,19:38:41.611,-1,1649.81684981685,1.05161505161505,31.5244294441072
1743291521631,19:38:41.631,-1,1668.13186813187,1.05117105117105,31.5244294441072
1743291521650,19:38:41.650,-1,1673.26007326007,1.05028305028305,31.5244294441072
1743291521670,19:38:41.670,-1,1663.00366300366,1.04983904983905,31.5244294441072
1743291521689,19:38:41.689,-1,1677.65567765568,1.04939504939505,31.5244294441072
1743291521709,19:38:41.709,-1,1695.2380952381,1.04895104895105,31.5244294441072
1743291521728,19:38:41.728,-1,1679.12087912088,1.04850704850705,31.5244294441072
1743291521748,19:38:41.748,-1,1642.49084249084,1.04850704850705,31.5244294441072
1743291521767,19:38:41.767,-1,1606.59340659341,1.04806304806305,31.5244294441072
1743291521787,19:38:41.787,-1,1574.35897435897,1.04761904761905,31.5244294441072
1743291521806,19:38:41.806,-1,1550.18315018315,1.04761904761905,31.5244294441072
1743291521826,19:38:41.826,-1,1510.62271062271,1.04761904761905,31.5244294441072
1743291521845,19:38:41.845,-1,1490.84249084249,1.04806304806305,31.5244294441072
1743291521865,19:38:41.865,-1,1492.30769230769,1.04806304806305,31.5244294441072
1743291521884,19:38:41.884,-1,1487.17948717949,1.04761904761905,31.5244294441072
1743291521904,19:38:41.904,-1,1463.73626373626,1.04806304806305,31.5244294441072
1743291521923,19:38:41.923,-1,1449.08424908425,1.04761904761905,31.5244294441072
1743291521943,19:38:41.943,-1,1438.82783882784,1.04761904761905,31.5244294441072
1743291521962,19:38:41.962,-1,1419.78021978022,1.04761904761905,31.5244294441072
1743291521982,19:38:41.982,-1,1404.3956043956,1.04806304806305,31.5244294441072
1743291522001,19:38:42.001,-1,1383.15018315018,1.04850704850705,31.5244294441072
1743291522021,19:38:42.021,-1,1353.11355311355,1.04895104895105,31.5244294441072
1743291522040,19:38:42.040,-1,1333.33333333333,1.04895104895105,31.5244294441072
1743291522060,19:38:42.060,-1,1314.28571428571,1.04939504939505,31.5244294441072
1743291522079,19:38:42.079,-1,1308.42490842491,1.04983904983905,31.5244294441072
1743291522099,19:38:42.099,-1,1306.95970695971,1.04983904983905,31.5244294441072
1743291522118,19:38:42.118,-1,1289.37728937729,1.05028305028305,31.5244294441072
1743291522138,19:38:42.138,-1,1277.65567765568,1.05072705072705,31.5244294441072
1743291522157,19:38:42.157,-1,1283.51648351648,1.05072705072705,31.5244294441072
1743291522177,19:38:42.177,-1,1290.84249084249,1.05161505161505,31.5244294441072
1743291522196,19:38:42.196,-1,1282.05128205128,1.05205905205905,31.5244294441072
1743291522216,19:38:42.216,-1,1265.93406593407,1.05205905205905,31.5244294441072
1743291522235,19:38:42.235,-1,1238.82783882784,1.05250305250305,31.5244294441072
1743291522255,19:38:42.255,-1,1216.84981684982,1.05339105339105,31.5244294441072
1743291522274,19:38:42.274,-1,1232.23443223443,1.05339105339105,31.5244294441072
1743291522294,19:38:42.294,-1,1278.38827838828,1.05383505383505,31.5244294441072
1743291522313,19:38:42.313,-1,1337.72893772894,1.05427905427905,31.5244294441072
1743291522333,19:38:42.333,-1,1412.45421245421,1.05472305472305,31.5244294441072
1743291522352,19:38:42.352,-1,1491.57509157509,1.05427905427905,31.5244294441072
1743291522372,19:38:42.372,-1,1558.24175824176,1.05427905427905,31.5244294441072
1743291522391,19:38:42.391,-1,1610.25641025641,1.05383505383505,31.5244294441072
1743291522411,19:38:42.411,-1,1649.08424908425,1.05339105339105,31.5244294441072
1743291522430,19:38:42.430,-1,1683.51648351648,1.05339105339105,31.5244294441072
1743291522450,19:38:42.450,-1,1701.8315018315,1.05294705294705,31.5244294441072
1743291522469,19:38:42.469,-1,1696.7032967033,1.05294705294705,31.5244294441072
1743291522489,19:38:42.489,-1,1688.64468864469,1.05250305250305,31.5244294441072
1743291522508,19:38:42.508,-1,1690.10989010989,1.05250305250305,31.5244294441072
1743291522528,19:38:42.528,-1,1676.92307692308,1.05250305250305,31.5244294441072
1743291522547,19:38:42.547,-1,1654.94505494505,1.05294705294705,31.5244294441072
1743291522567,19:38:42.567,-1,1616.11721611722,1.05250305250305,31.5394460703246
1743291522586,19:38:42.586,-1,1575.09157509157,1.05294705294705,31.5394460703246
1743291522606,19:38:42.606,-1,1545.05494505494,1.05294705294705,31.5394460703246
1743291522625,19:38:42.625,-1,1502.5641025641,1.05294705294705,31.5394460703246
1743291522645,19:38:42.645,-1,1475.45787545788,1.05339105339105,31.5394460703246
1743291522664,19:38:42.664,-1,1447.61904761905,1.05339105339105,31.5394460703246
1743291522684,19:38:42.684,-1,1424.90842490842,1.05383505383505,31.5394460703246
1743291522703,19:38:42.703,-1,1410.25641025641,1.05383505383505,31.5394460703246
1743291522723,19:38:42.723,-1,1401.4652014652,1.05383505383505,31.5394460703246
1743291522742,19:38:42.742,-1,1387.54578754579,1.05427905427905,31.5394460703246
1743291522762,19:38:42.762,-1,1361.90476190476,1.05427905427905,31.5394460703246
1743291522781,19:38:42.781,-1,1344.32234432234,1.05472305472305,31.5394460703246
1743291522801,19:38:42.801,-1,1327.47252747253,1.05472305472305,31.5394460703246
1743291522820,19:38:42.820,-1,1317.21611721612,1.05472305472305,31.5394460703246
1743291522840,19:38:42.840,-1,1315.75091575092,1.05516705516705,31.5394460703246
1743291522859,19:38:42.859,-1,1309.89010989011,1.05516705516705,31.5394460703246
1743291522879,19:38:42.879,-1,1296.7032967033,1.05561105561106,31.5394460703246
1743291522898,19:38:42.898,-1,1285.71428571429,1.05605505605506,31.5394460703246
1743291522918,19:38:42.918,-1,1273.26007326007,1.05605505605506,31.5394460703246
1743291522937,19:38:42.937,-1,1260.80586080586,1.05649905649906,31.5394460703246
1743291522957,19:38:42.957,-1,1245.42124542125,1.05649905649906,31.5394460703246
1743291522976,19:38:42.976,-1,1232.23443223443,1.05694305694306,31.5394460703246
1743291522996,19:38:42.996,-1,1222.71062271062,1.05694305694306,31.5394460703246
1743291523015,19:38:43.015,-1,1214.65201465201,1.05738705738706,31.5394460703246
1743291523035,19:38:43.035,-1,1210.98901098901,1.05738705738706,31.5394460703246
1743291523054,19:38:43.054,-1,1211.72161172161,1.05738705738706,31.5394460703246
1743291523074,19:38:43.074,-1,1202.1978021978,1.05738705738706,31.5394460703246
1743291523093,19:38:43.093,-1,1196.336996337,1.05783105783106,31.5394460703246
1743291523113,19:38:43.113,-1,1197.0695970696,1.05783105783106,31.5394460703246
1743291523132,19:38:43.132,-1,1190.47619047619,1.05827505827506,31.5394460703246
1743291523152,19:38:43.152,-1,1188.27838827839,1.05827505827506,31.5394460703246
1743291523171,19:38:43.171,-1,1221.97802197802,1.05827505827506,31.5394460703246
1743291523191,19:38:43.191,-1,1289.37728937729,1.05827505827506,31.5394460703246
1743291523210,19:38:43.210,-1,1367.03296703297,1.05783105783106,31.5394460703246
1743291523230,19:38:43.230,-1,1443.95604395604,1.05783105783106,31.5394460703246
1743291523249,19:38:43.249,-1,1490.84249084249,1.05738705738706,31.5394460703246
1743291523269,19:38:43.269,-1,1523.07692307692,1.05694305694306,31.5394460703246
1743291523288,19:38:43.288,-1,1563.36996336996,1.05605505605506,31.5394460703246
1743291523308,19:38:43.308,-1,1590.47619047619,1.05561105561106,31.5394460703246
1743291523327,19:38:43.327,-1,1594.87179487179,1.05516705516705,31.5394460703246
1743291523347,19:38:43.347,-1,1609.52380952381,1.05472305472305,31.5394460703246
1743291523366,19:38:43.366,-1,1635.16483516484,1.05472305472305,31.5394460703246
1743291523386,19:38:43.386,-1,1644.68864468864,1.05427905427905,31.5394460703246
1743291523405,19:38:43.405,-1,1629.30402930403,1.05383505383505,31.5394460703246
1743291523425,19:38:43.425,-1,1588.27838827839,1.05383505383505,31.5394460703246
1743291523444,19:38:43.444,-1,1542.85714285714,1.05339105339105,31.5394460703246
1743291523464,19:38:43.464,-1,1498.1684981685,1.05339105339105,31.5394460703246
1743291523483,19:38:43.483,-1,1471.06227106227,1.05294705294705,31.5394460703246
1743291523503,19:38:43.503,-1,1446.88644688645,1.05339105339105,31.5394460703246
1743291523522,19:38:43.522,-1,1434.43223443223,1.05250305250305,31.5394460703246
1743291523542,19:38:43.542,-1,1422.71062271062,1.05294705294705,31.5394460703246
1743291523561,19:38:43.561,-1,1403.663003663,1.05294705294705,31.5544626441551
1743291523581,19:38:43.581,-1,1373.62637362637,1.05294705294705,31.5544626441551
1743291523600,19:38:43.600,-1,1343.58974358974,1.05294705294705,31.5544626441551
1743291523620,19:38:43.620,-1,1326.00732600733,1.05294705294705,31.5544626441551
1743291523639,19:38:43.639,-1,1311.35531135531,1.05250305250305,31.5544626441551
1743291523659,19:38:43.659,-1,1299.6336996337,1.05250305250305,31.5544626441551
1743291523678,19:38:43.678,-1,1300.3663003663,1.05250305250305,31.5544626441551
1743291523698,19:38:43.698,-1,1304.0293040293,1.05205905205905,31.5544626441551
1743291523717,19:38:43.717,-1,1304.0293040293,1.05250305250305,31.5544626441551
1743291523737,19:38:43.737,-1,1290.10989010989,1.05250305250305,31.5544626441551
1743291523756,19:38:43.756,-1,1272.52747252747,1.05205905205905,31.5544626441551
1743291523776,19:38:43.776,-1,1248.35164835165,1.05250305250305,31.5544626441551
1743291523795,19:38:43.795,-1,1241.02564102564,1.05250305250305,31.5544626441551
1743291523815,19:38:43.815,-1,1231.50183150183,1.05250305250305,31.5544626441551
1743291523834,19:38:43.834,-1,1221.97802197802,1.05294705294705,31.5544626441551
1743291523854,19:38:43.854,-1,1203.663003663,1.05294705294705,31.5544626441551
1743291523873,19:38:43.873,-1,1186.08058608059,1.05339105339105,31.5544626441551
1743291523893,19:38:43.893,-1,1188.27838827839,1.05339105339105,31.5544626441551
1743291523912,19:38:43.912,-1,1195.6043956044,1.05339105339105,31.5544626441551
1743291523932,19:38:43.932,-1,1200,1.05339105339105,31.5544626441551
1743291523951,19:38:43.951,-1,1186.08058608059,1.05339105339105,31.5544626441551
1743291523971,19:38:43.971,-1,1169.23076923077,1.05339105339105,31.5544626441551
1743291523990,19:38:43.990,-1,1166.30036630037,1.05383505383505,31.5544626441551
1743291524010,19:38:44.010,-1,1172.89377289377,1.05383505383505,31.5544626441551
1743291524029,19:38:44.029,-1,1188.27838827839,1.05383505383505,31.5544626441551
1743291524049,19:38:44.049,-1,1224.90842490842,1.05383505383505,31.5544626441551
1743291524068,19:38:44.068,-1,1274.72527472527,1.05383505383505,31.5544626441551
1743291524088,19:38:44.088,-1,1323.80952380952,1.05339105339105,31.5544626441551
1743291524107,19:38:44.107,-1,1367.76556776557,1.05294705294705,31.5544626441551
1743291524127,19:38:44.127,-1,1405.12820512821,1.05250305250305,31.5544626441551
1743291524146,19:38:44.146,-1,1441.75824175824,1.05205905205905,31.5544626441551
1743291524166,19:38:44.166,-1,1487.17948717949,1.05117105117105,31.5544626441551
1743291524185,19:38:44.185,-1,1514.28571428571,1.05072705072705,31.5544626441551
1743291524205,19:38:44.205,-1,1525.27472527473,1.05028305028305,31.5544626441551
1743291524224,19:38:44.224,-1,1529.67032967033,1.04983904983905,31.5544626441551
1743291524244,19:38:44.244,-1,1534.06593406593,1.04983904983905,31.5544626441551
1743291524263,19:38:44.263,-1,1527.47252747253,1.04939504939505,31.5544626441551
1743291524283,19:38:44.283,-1,1503.2967032967,1.04939504939505,31.5544626441551
1743291524302,19:38:44.302,-1,1470.32967032967,1.04895104895105,31.5544626441551
1743291524322,19:38:44.322,-1,1435.16483516484,1.04850704850705,31.5544626441551
1743291524341,19:38:44.341,-1,1418.31501831502,1.04850704850705,31.5544626441551
1743291524361,19:38:44.361,-1,1391.94139194139,1.04850704850705,31.5544626441551
1743291524380,19:38:44.380,-1,1378.02197802198,1.04806304806305,31.5544626441551
1743291524400,19:38:44.400,-1,1357.50915750916,1.04806304806305,31.5544626441551
1743291524419,19:38:44.419,-1,1347.98534798535,1.04806304806305,31.5544626441551
1743291524439,19:38:44.439,-1,1341.39194139194,1.04761904761905,31.5544626441551
1743291524458,19:38:44.458,-1,1339.92673992674,1.04761904761905,31.5544626441551
1743291524478,19:38:44.478,-1,1339.19413919414,1.04761904761905,31.5544626441551
1743291524497,19:38:44.497,-1,1336.26373626374,1.04806304806305,31.5544626441551
1743291524517,19:38:44.517,-1,1331.13553113553,1.04761904761905,31.5544626441551
1743291524536,19:38:44.536,-1,1321.61172161172,1.04717504717505,31.5544626441551
1743291524556,19:38:44.556,-1,1306.95970695971,1.04673104673105,31.5644736642716
1743291524575,19:38:44.575,-1,1283.51648351648,1.04673104673105,31.5644736642716
1743291524595,19:38:44.595,-1,1277.65567765568,1.04673104673105,31.5644736642716
1743291524614,19:38:44.614,-1,1273.99267399267,1.04673104673105,31.5644736642716
1743291524634,19:38:44.634,-1,1266.66666666667,1.04673104673105,31.5644736642716
1743291524653,19:38:44.653,-1,1248.35164835165,1.04628704628705,31.5644736642716
1743291524673,19:38:44.673,-1,1240.29304029304,1.04628704628705,31.5644736642716
1743291524692,19:38:44.692,-1,1253.47985347985,1.04673104673105,31.5644736642716
1743291524712,19:38:44.712,-1,1249.08424908425,1.04628704628705,31.5644736642716
1743291524731,19:38:44.731,-1,1246.15384615385,1.04628704628705,31.5644736642716
1743291524751,19:38:44.751,-1,1229.30402930403,1.04673104673105,31.5644736642716
1743291524770,19:38:44.770,-1,1218.31501831502,1.04628704628705,31.5644736642716
1743291524790,19:38:44.790,-1,1224.17582417582,1.04628704628705,31.5644736642716
1743291524809,19:38:44.809,-1,1238.82783882784,1.04628704628705,31.5644736642716
1743291524829,19:38:44.829,-1,1249.81684981685,1.04673104673105,31.5644736642716
1743291524848,19:38:44.848,-1,1267.39926739927,1.04673104673105,31.5644736642716
1743291524868,19:38:44.868,-1,1328.93772893773,1.04628704628705,31.5644736642716
1743291524887,19:38:44.887,-1,1375.82417582418,1.04584304584305,31.5644736642716
1743291524907,19:38:44.907,-1,1412.45421245421,1.04584304584305,31.5644736642716
1743291524926,19:38:44.926,-1,1439.56043956044,1.04539904539905,31.5644736642716
1743291524946,19:38:44.946,-1,1465.93406593407,1.04539904539905,31.5644736642716
1743291524965,19:38:44.965,-1,1482.78388278388,1.04539904539905,31.5644736642716
1743291524985,19:38:44.985,-1,1480.58608058608,1.04451104451104,31.5644736642716
1743291525004,19:38:45.004,-1,1468.86446886447,1.04406704406704,31.5644736642716
1743291525024,19:38:45.024,-1,1460.80586080586,1.04362304362304,31.5644736642716
1743291525043,19:38:45.043,-1,1460.07326007326,1.04362304362304,31.5644736642716
1743291525063,19:38:45.063,-1,1465.20146520146,1.04362304362304,31.5644736642716
1743291525082,19:38:45.082,-1,1457.14285714286,1.04317904317904,31.5644736642716
1743291525102,19:38:45.102,-1,1432.23443223443,1.04317904317904,31.5644736642716
1743291525121,19:38:45.121,-1,1417.58241758242,1.04317904317904,31.5644736642716
1743291525141,19:38:45.141,-1,1404.3956043956,1.04273504273504,31.5644736642716
1743291525160,19:38:45.160,-1,1389.74358974359,1.04273504273504,31.5644736642716
1743291525180,19:38:45.180,-1,1376.55677655678,1.04273504273504,31.5644736642716
1743291525199,19:38:45.199,-1,1362.63736263736,1.04273504273504,31.5644736642716
1743291525219,19:38:45.219,-1,1353.11355311355,1.04229104229104,31.5644736642716
1743291525238,19:38:45.238,-1,1341.39194139194,1.04229104229104,31.5644736642716
1743291525258,19:38:45.258,-1,1332.60073260073,1.04184704184704,31.5644736642716
1743291525277,19:38:45.277,-1,1326.00732600733,1.04184704184704,31.5644736642716
1743291525297,19:38:45.297,-1,1326.73992673993,1.04184704184704,31.5644736642716
1743291525316,19:38:45.316,-1,1311.35531135531,1.04184704184704,31.5644736642716
1743291525336,19:38:45.336,-1,1294.50549450549,1.04184704184704,31.5644736642716
1743291525355,19:38:45.355,-1,1285.71428571429,1.04184704184704,31.5644736642716
1743291525375,19:38:45.375,-1,1270.32967032967,1.04140304140304,31.5644736642716
1743291525394,19:38:45.394,-1,1260.80586080586,1.04140304140304,31.5644736642716
1743291525414,19:38:45.414,-1,1255.67765567766,1.04140304140304,31.5644736642716
1743291525433,19:38:45.433,-1,1250.54945054945,1.04140304140304,31.5644736642716
1743291525453,19:38:45.453,-1,1243.95604395604,1.04095904095904,31.5644736642716
1743291525472,19:38:45.472,-1,1234.43223443223,1.04095904095904,31.5644736642716
1743291525492,19:38:45.492,-1,1219.78021978022,1.04095904095904,31.5644736642716
1743291525511,19:38:45.511,-1,1215.38461538462,1.04140304140304,31.5644736642716
1743291525531,19:38:45.531,-1,1210.25641025641,1.04140304140304,31.5644736642716
1743291525550,19:38:45.550,-1,1210.98901098901,1.04140304140304,31.5844956346555
1743291525570,19:38:45.570,-1,1211.72161172161,1.04095904095904,31.5844956346555
1743291525589,19:38:45.589,-1,1219.04761904762,1.04095904095904,31.5844956346555
1743291525609,19:38:45.609,-1,1238.82783882784,1.04095904095904,31.5844956346555
1743291525628,19:38:45.628,-1,1283.51648351648,1.04095904095904,31.5844956346555
1743291525648,19:38:45.648,-1,1326.00732600733,1.04051504051504,31.5844956346555
1743291525667,19:38:45.667,-1,1371.42857142857,1.04007104007104,31.5844956346555
1743291525687,19:38:45.687,-1,1424.90842490842,1.03962703962704,31.5844956346555
1743291525706,19:38:45.706,-1,1469.59706959707,1.03873903873904,31.5844956346555
1743291525726,19:38:45.726,-1,1502.5641025641,1.03873903873904,31.5844956346555
1743291525745,19:38:45.745,-1,1526.00732600733,1.03829503829504,31.5844956346555
1743291525765,19:38:45.765,-1,1523.07692307692,1.03829503829504,31.5844956346555
1743291525784,19:38:45.784,-1,1528.20512820513,1.03785103785104,31.5844956346555
1743291525804,19:38:45.804,-1,1534.06593406593,1.03696303696304,31.5844956346555
1743291525823,19:38:45.823,-1,1531.86813186813,1.03607503607504,31.5844956346555
1743291525843,19:38:45.843,-1,1518.68131868132,1.03607503607504,31.5844956346555
1743291525862,19:38:45.862,-1,1510.62271062271,1.03607503607504,31.5844956346555
1743291525882,19:38:45.882,-1,1492.30769230769,1.03563103563104,31.5844956346555
1743291525901,19:38:45.901,-1,1463.73626373626,1.03518703518704,31.5844956346555
1743291525921,19:38:45.921,-1,1430.76923076923,1.03474303474303,31.5844956346555
1743291525940,19:38:45.940,-1,1395.6043956044,1.03474303474303,31.5844956346555
1743291525960,19:38:45.960,-1,1375.82417582418,1.03429903429903,31.5844956346555
1743291525979,19:38:45.979,-1,1363.36996336996,1.03429903429903,31.5844956346555
1743291525999,19:38:45.999,-1,1365.56776556777,1.03385503385503,31.5844956346555
1743291526018,19:38:46.018,-1,1357.50915750916,1.03341103341103,31.5844956346555
1743291526038,19:38:46.038,-1,1339.92673992674,1.03296703296703,31.5844956346555
1743291526057,19:38:46.057,-1,1322.34432234432,1.03296703296703,31.5844956346555
1743291526077,19:38:46.077,-1,1320.14652014652,1.03252303252303,31.5844956346555
1743291526096,19:38:46.096,-1,1325.27472527473,1.03252303252303,31.5844956346555
1743291526116,19:38:46.116,-1,1317.94871794872,1.03252303252303,31.5844956346555
1743291526135,19:38:46.135,-1,1306.22710622711,1.03207903207903,31.5844956346555
1743291526155,19:38:46.155,-1,1292.30769230769,1.03163503163503,31.5844956346555
1743291526174,19:38:46.174,-1,1277.65567765568,1.03163503163503,31.5844956346555
1743291526194,19:38:46.194,-1,1276.19047619048,1.03119103119103,31.5844956346555
1743291526213,19:38:46.213,-1,1268.13186813187,1.03119103119103,31.5844956346555
1743291526233,19:38:46.233,-1,1243.22344322344,1.03074703074703,31.5844956346555
1743291526252,19:38:46.252,-1,1236.63003663004,1.03074703074703,31.5844956346555
1743291526272,19:38:46.272,-1,1235.16483516484,1.03030303030303,31.5844956346555
1743291526291,19:38:46.291,-1,1232.23443223443,1.03030303030303,31.5844956346555
1743291526311,19:38:46.311,-1,1216.11721611722,1.03030303030303,31.5844956346555
1743291526330,19:38:46.330,-1,1214.65201465201,1.02985902985903,31.5844956346555
1743291526350,19:38:46.350,-1,1220.51282051282,1.02985902985903,31.5844956346555
1743291526369,19:38:46.369,-1,1216.11721611722,1.02985902985903,31.5844956346555
1743291526389,19:38:46.389,-1,1208.05860805861,1.02941502941503,31.5844956346555
1743291526408,19:38:46.408,-1,1205.12820512821,1.02985902985903,31.5844956346555
1743291526428,19:38:46.428,-1,1203.663003663,1.02941502941503,31.5844956346555
1743291526447,19:38:46.447,-1,1224.17582417582,1.02941502941503,31.5844956346555
1743291526467,19:38:46.467,-1,1254.94505494505,1.02941502941503,31.5844956346555
1743291526486,19:38:46.486,-1,1309.89010989011,1.02852702852703,31.5844956346555
1743291526506,19:38:46.506,-1,1370.69597069597,1.02808302808303,31.5844956346555
1743291526525,19:38:46.525,-1,1416.84981684982,1.02763902763903,31.5844956346555
1743291526545,19:38:46.545,-1,1462.27106227106,1.02675102675103,31.604517511907
1743291526564,19:38:46.564,-1,1498.1684981685,1.02675102675103,31.604517511907
1743291526584,19:38:46.584,-1,1519.41391941392,1.02586302586303,31.604517511907
1743291526603,19:38:46.603,-1,1528.20512820513,1.02497502497502,31.604517511907
1743291526623,19:38:46.623,-1,1547.98534798535,1.02453102453102,31.604517511907
1743291526642,19:38:46.642,-1,1552.38095238095,1.02408702408702,31.604517511907
1743291526662,19:38:46.662,-1,1558.24175824176,1.02364302364302,31.604517511907
1743291526681,19:38:46.681,-1,1553.11355311355,1.02319902319902,31.604517511907
1743291526701,19:38:46.701,-1,1545.05494505494,1.02275502275502,31.604517511907
1743291526720,19:38:46.720,-1,1523.07692307692,1.02186702186702,31.604517511907
1743291526740,19:38:46.740,-1,1492.30769230769,1.02142302142302,31.604517511907
1743291526759,19:38:46.759,-1,1473.99267399267,1.02097902097902,31.604517511907
1743291526779,19:38:46.779,-1,1462.27106227106,1.02097902097902,31.604517511907
1743291526798,19:38:46.798,-1,1455.67765567766,1.02053502053502,31.604517511907
1743291526818,19:38:46.818,-1,1439.56043956044,1.02009102009102,31.604517511907
1743291526837,19:38:46.837,-1,1416.11721611722,1.01964701964702,31.604517511907
1743291526857,19:38:46.857,-1,1403.663003663,1.01920301920302,31.604517511907
1743291526876,19:38:46.876,-1,1397.0695970696,1.01920301920302,31.604517511907
1743291526896,19:38:46.896,-1,1390.47619047619,1.01875901875902,31.604517511907
1743291526915,19:38:46.915,-1,1371.42857142857,1.01831501831502,31.604517511907
1743291526935,19:38:46.935,-1,1356.77655677656,1.01787101787102,31.604517511907
1743291526954,19:38:46.954,-1,1343.58974358974,1.01742701742702,31.604517511907
1743291526974,19:38:46.974,-1,1324.54212454212,1.01698301698302,31.604517511907
1743291526993,19:38:46.993,-1,1306.95970695971,1.01698301698302,31.604517511907
1743291527013,19:38:47.013,-1,1294.50549450549,1.01653901653902,31.604517511907
1743291527032,19:38:47.032,-1,1285.71428571429,1.01609501609502,31.604517511907
1743291527052,19:38:47.052,-1,1287.17948717949,1.01609501609502,31.604517511907
1743291527071,19:38:47.071,-1,1293.77289377289,1.01565101565102,31.604517511907
1743291527091,19:38:47.091,-1,1283.51648351648,1.01520701520702,31.604517511907
1743291527110,19:38:47.110,-1,1263.00366300366,1.01520701520702,31.604517511907
1743291527130,19:38:47.130,-1,1236.63003663004,1.01520701520702,31.604517511907
1743291527149,19:38:47.149,-1,1216.84981684982,1.01476301476301,31.604517511907
1743291527169,19:38:47.169,-1,1209.52380952381,1.01431901431901,31.604517511907
1743291527188,19:38:47.188,-1,1208.79120879121,1.01387501387501,31.604517511907
1743291527208,19:38:47.208,-1,1215.38461538462,1.01343101343101,31.604517511907
1743291527227,19:38:47.227,-1,1233.69963369963,1.01343101343101,31.604517511907
1743291527247,19:38:47.247,-1,1251.28205128205,1.01343101343101,31.604517511907
1743291527266,19:38:47.266,-1,1249.81684981685,1.01343101343101,31.604517511907
1743291527286,19:38:47.286,-1,1238.09523809524,1.01298701298701,31.604517511907
1743291527305,19:38:47.305,-1,1243.22344322344,1.01254301254301,31.604517511907
1743291527325,19:38:47.325,-1,1269.59706959707,1.01254301254301,31.604517511907
1743291527344,19:38:47.344,-1,1317.94871794872,1.01254301254301,31.604517511907
1743291527364,19:38:47.364,-1,1369.96336996337,1.01209901209901,31.604517511907
1743291527383,19:38:47.383,-1,1405.12820512821,1.01121101121101,31.604517511907
1743291527403,19:38:47.403,-1,1432.23443223443,1.01032301032301,31.604517511907
1743291527422,19:38:47.422,-1,1469.59706959707,1.00987900987901,31.604517511907
1743291527442,19:38:47.442,-1,1504.0293040293,1.00899100899101,31.604517511907
1743291527461,19:38:47.461,-1,1524.54212454212,1.00854700854701,31.604517511907
1743291527481,19:38:47.481,-1,1538.46153846154,1.00810300810301,31.604517511907
1743291527500,19:38:47.500,-1,1544.32234432234,1.00721500721501,31.604517511907
1743291527520,19:38:47.520,-1,1550.18315018315,1.00677100677101,31.604517511907
1743291527539,19:38:47.539,-1,1549.45054945055,1.00588300588301,31.6245392960263
1743291527559,19:38:47.559,-1,1529.67032967033,1.004995004995,31.6245392960263
1743291527578,19:38:47.578,-1,1523.80952380952,1.004107004107,31.6245392960263
1743291527598,19:38:47.598,-1,1512.08791208791,1.003663003663,31.6245392960263
1743291527617,19:38:47.617,-1,1487.91208791209,1.002775002775,31.6245392960263
1743291527637,19:38:47.637,-1,1465.93406593407,1.002331002331,31.6245392960263
1743291527656,19:38:47.656,-1,1440.29304029304,1.001887001887,31.6245392960263
1743291527676,19:38:47.676,-1,1427.10622710623,1.001887001887,31.6245392960263
1743291527695,19:38:47.695,-1,1416.11721611722,1.001443001443,31.6245392960263
1743291527715,19:38:47.715,-1,1413.91941391941,1.001443001443,31.6245392960263
1743291527734,19:38:47.734,-1,1421.24542124542,1.000999000999,31.6245392960263
1743291527754,19:38:47.754,-1,1429.30402930403,1.000555000555,31.6245392960263
1743291527773,19:38:47.773,-1,1411.72161172161,1.000555000555,31.6245392960263
1743291527793,19:38:47.793,-1,1392.67399267399,1.000555000555,31.6245392960263
1743291527812,19:38:47.812,-1,1374.35897435897,1.000111000111,31.6245392960263
1743291527832,19:38:47.832,-1,1339.92673992674,1.000111000111,31.6245392960263
1743291527851,19:38:47.851,-1,1298.9010989011,0.999666999667,31.6245392960263
1743291527871,19:38:47.871,-1,1286.44688644689,0.999666999667,31.6245392960263
1743291527890,19:38:47.890,-1,1277.65567765568,0.999222999222999,31.6245392960263
1743291527910,19:38:47.910,-1,1284.24908424908,0.998778998778999,31.6245392960263
1743291527929,19:38:47.929,-1,1301.0989010989,0.998778998778999,31.6245392960263
1743291527949,19:38:47.949,-1,1317.94871794872,0.998778998778999,31.6245392960263
1743291527968,19:38:47.968,-1,1320.87912087912,0.998334998334998,31.6245392960263
1743291527988,19:38:47.988,-1,1310.62271062271,0.998334998334998,31.6245392960263
1743291528007,19:38:48.007,-1,1287.91208791209,0.997890997890998,31.6245392960263
1743291528027,19:38:48.027,-1,1263.00366300366,0.997890997890998,31.6245392960263
1743291528046,19:38:48.046,-1,1249.08424908425,0.997890997890998,31.6245392960263
1743291528066,19:38:48.066,-1,1242.49084249084,0.997446997446997,31.6245392960263
1743291528085,19:38:48.085,-1,1249.08424908425,0.997446997446997,31.6245392960263
1743291528105,19:38:48.105,-1,1279.12087912088,0.997002997002997,31.6245392960263
1743291528124,19:38:48.124,-1,1315.01831501831,0.997002997002997,31.6245392960263
1743291528144,19:38:48.144,-1,1367.76556776557,0.997002997002997,31.6245392960263
1743291528163,19:38:48.163,-1,1437.36263736264,0.996558996558997,31.6245392960263
1743291528183,19:38:48.183,-1,1497.4358974359,0.996114996114996,31.6245392960263
1743291528202,19:38:48.202,-1,1536.99633699634,0.996114996114996,31.6245392960263
1743291528222,19:38:48.222,-1,1564.83516483516,0.995670995670996,31.6245392960263
1743291528241,19:38:48.241,-1,1584.61538461538,0.995226995226995,31.6245392960263
1743291528261,19:38:48.261,-1,1588.27838827839,0.994782994782995,31.6245392960263
1743291528280,19:38:48.280,-1,1594.13919413919,0.994782994782995,31.6245392960263
1743291528300,19:38:48.300,-1,1591.94139194139,0.994338994338994,31.6245392960263
1743291528319,19:38:48.319,-1,1575.09157509157,0.994338994338994,31.6245392960263
1743291528339,19:38:48.339,-1,1554.57875457875,0.993894993894994,31.6245392960263
1743291528358,19:38:48.358,-1,1520.14652014652,0.993450993450993,31.6245392960263
1743291528378,19:38:48.378,-1,1487.17948717949,0.993450993450993,31.6245392960263
1743291528397,19:38:48.397,-1,1467.39926739927,0.993006993006993,31.6245392960263
1743291528417,19:38:48.417,-1,1457.14285714286,0.993006993006993,31.6245392960263
1743291528436,19:38:48.436,-1,1456.41025641026,0.992562992562993,31.6245392960263
1743291528456,19:38:48.456,-1,1454.21245421245,0.992118992118992,31.6245392960263
1743291528475,19:38:48.475,-1,1457.87545787546,0.991674991674992,31.6245392960263
1743291528495,19:38:48.495,-1,1458.60805860806,0.991230991230991,31.6245392960263
1743291528514,19:38:48.514,-1,1446.88644688645,0.991230991230991,31.6245392960263
1743291528534,19:38:48.534,-1,1417.58241758242,0.990786990786991,31.6395555729978
1743291528553,19:38:48.553,-1,1378.02197802198,0.98989898989899,31.6395555729978
1743291528573,19:38:48.573,-1,1347.25274725275,0.98989898989899,31.6395555729978
1743291528592,19:38:48.592,-1,1328.20512820513,0.989454989454989,31.6395555729978
1743291528612,19:38:48.612,-1,1328.20512820513,0.989454989454989,31.6395555729978
1743291528631,19:38:48.631,-1,1341.39194139194,0.989454989454989,31.6395555729978
1743291528651,19:38:48.651,-1,1340.65934065934,0.989010989010989,31.6395555729978
1743291528670,19:38:48.670,-1,1327.47252747253,0.989010989010989,31.6395555729978
1743291528690,19:38:48.690,-1,1315.75091575092,0.989010989010989,31.6395555729978
1743291528709,19:38:48.709,-1,1295.9706959707,0.989010989010989,31.6395555729978
1743291528729,19:38:48.729,-1,1276.19047619048,0.989010989010989,31.6395555729978
1743291528748,19:38:48.748,-1,1258.60805860806,0.989010989010989,31.6395555729978
1743291528768,19:38:48.768,-1,1250.54945054945,0.989010989010989,31.6395555729978
1743291528787,19:38:48.787,-1,1251.28205128205,0.988566988566989,31.6395555729978
1743291528807,19:38:48.807,-1,1263.00366300366,0.988122988122988,31.6395555729978
1743291528826,19:38:48.826,-1,1280.58608058608,0.988566988566989,31.6395555729978
1743291528846,19:38:48.846,-1,1284.98168498168,0.988566988566989,31.6395555729978
1743291528865,19:38:48.865,-1,1299.6336996337,0.988566988566989,31.6395555729978
1743291528885,19:38:48.885,-1,1324.54212454212,0.988122988122988,31.6395555729978
1743291528904,19:38:48.904,-1,1363.36996336996,0.988122988122988,31.6395555729978
1743291528924,19:38:48.924,-1,1417.58241758242,0.987678987678988,31.6395555729978
1743291528943,19:38:48.943,-1,1478.38827838828,0.987234987234987,31.6395555729978
1743291528963,19:38:48.963,-1,1541.39194139194,0.986790986790987,31.6395555729978
1743291528982,19:38:48.982,-1,1594.87179487179,0.985902985902986,31.6395555729978
1743291529002,19:38:49.002,-1,1634.43223443223,0.984570984570985,31.6395555729978
1743291529021,19:38:49.021,-1,1649.08424908425,0.984126984126984,31.6395555729978
1743291529041,19:38:49.041,-1,1649.08424908425,0.983682983682984,31.6395555729978
1743291529060,19:38:49.060,-1,1659.34065934066,0.983238983238983,31.6395555729978
1743291529080,19:38:49.080,-1,1666.66666666667,0.983238983238983,31.6395555729978
1743291529099,19:38:49.099,-1,1655.67765567766,0.982350982350982,31.6395555729978
1743291529119,19:38:49.119,-1,1644.68864468864,0.981906981906982,31.6395555729978
1743291529138,19:38:49.138,-1,1620.51282051282,0.981462981462981,31.6395555729978
1743291529158,19:38:49.158,-1,1593.40659340659,0.981462981462981,31.6395555729978
1743291529177,19:38:49.177,-1,1569.23076923077,0.981018981018981,31.6395555729978
1743291529197,19:38:49.197,-1,1536.26373626374,0.981018981018981,31.6395555729978
1743291529216,19:38:49.216,-1,1495.2380952381,0.981018981018981,31.6395555729978
1743291529236,19:38:49.236,-1,1480.58608058608,0.981018981018981,31.6395555729978
1743291529255,19:38:49.255,-1,1493.77289377289,0.98057498057498,31.6395555729978
1743291529275,19:38:49.275,-1,1501.8315018315,0.98013098013098,31.6395555729978
1743291529294,19:38:49.294,-1,1493.04029304029,0.98013098013098,31.6395555729978
1743291529314,19:38:49.314,-1,1477.65567765568,0.98013098013098,31.6395555729978
1743291529333,19:38:49.333,-1,1441.02564102564,0.979686979686979,31.6395555729978
1743291529353,19:38:49.353,-1,1413.18681318681,0.979242979242979,31.6395555729978
1743291529372,19:38:49.372,-1,1392.67399267399,0.979242979242979,31.6395555729978
1743291529392,19:38:49.392,-1,1377.28937728938,0.979242979242979,31.6395555729978
1743291529411,19:38:49.411,-1,1362.63736263736,0.979242979242979,31.6395555729978
1743291529431,19:38:49.431,-1,1348.71794871795,0.979242979242979,31.6395555729978
1743291529450,19:38:49.450,-1,1346.52014652015,0.979242979242979,31.6395555729978
1743291529470,19:38:49.470,-1,1349.45054945055,0.979242979242979,31.6395555729978
1743291529489,19:38:49.489,-1,1336.99633699634,0.978798978798979,31.6395555729978
1743291529509,19:38:49.509,-1,1324.54212454212,0.979242979242979,31.6395555729978
1743291529528,19:38:49.528,-1,1298.1684981685,0.979242979242979,31.6595771941356
1743291529548,19:38:49.548,-1,1271.06227106227,0.979242979242979,31.6595771941356
1743291529567,19:38:49.567,-1,1259.34065934066,0.979242979242979,31.6595771941356
1743291529587,19:38:49.587,-1,1262.27106227106,0.979242979242979,31.6595771941356
1743291529606,19:38:49.606,-1,1252.01465201465,0.979242979242979,31.6595771941356
1743291529626,19:38:49.626,-1,1246.88644688645,0.979242979242979,31.6595771941356
1743291529645,19:38:49.645,-1,1258.60805860806,0.979242979242979,31.6595771941356
1743291529665,19:38:49.665,-1,1264.46886446886,0.979686979686979,31.6595771941356
1743291529684,19:38:49.684,-1,1266.66666666667,0.979686979686979,31.6595771941356
1743291529704,19:38:49.704,-1,1263.00366300366,0.979686979686979,31.6595771941356
1743291529723,19:38:49.723,-1,1290.84249084249,0.979686979686979,31.6595771941356
1743291529743,19:38:49.743,-1,1354.57875457875,0.979686979686979,31.6595771941356
1743291529762,19:38:49.762,-1,1433.69963369963,0.979686979686979,31.6595771941356
1743291529782,19:38:49.782,-1,1521.61172161172,0.979242979242979,31.6595771941356
1743291529801,19:38:49.801,-1,1589.74358974359,0.978798978798979,31.6595771941356
1743291529821,19:38:49.821,-1,1623.44322344322,0.978354978354978,31.6595771941356
1743291529840,19:38:49.840,-1,1661.53846153846,0.977466977466978,31.6595771941356
1743291529860,19:38:49.860,-1,1697.4358974359,0.977466977466978,31.6595771941356
1743291529879,19:38:49.879,-1,1715.01831501831,0.977022977022977,31.6595771941356
1743291529899,19:38:49.899,-1,1715.75091575092,0.977022977022977,31.6595771941356
1743291529918,19:38:49.918,-1,1712.08791208791,0.976578976578977,31.6595771941356
1743291529938,19:38:49.938,-1,1725.27472527473,0.976578976578977,31.6595771941356
1743291529957,19:38:49.957,-1,1733.33333333333,0.976134976134976,31.6595771941356
1743291529977,19:38:49.977,-1,1709.15750915751,0.976134976134976,31.6595771941356
1743291529996,19:38:49.996,-1,1653.47985347985,0.976134976134976,31.6595771941356
1743291530016,19:38:50.016,-1,1598.5347985348,0.975690975690975,31.6595771941356
1743291530035,19:38:50.035,-1,1558.97435897436,0.975690975690975,31.6595771941356
1743291530055,19:38:50.055,-1,1539.92673992674,0.975690975690975,31.6595771941356
1743291530074,19:38:50.074,-1,1529.67032967033,0.975690975690975,31.6595771941356
1743291530094,19:38:50.094,-1,1533.33333333333,0.976134976134976,31.6595771941356
1743291530113,19:38:50.113,-1,1538.46153846154,0.975690975690975,31.6595771941356
1743291530133,19:38:50.133,-1,1526.73992673993,0.976134976134976,31.6595771941356
1743291530152,19:38:50.152,-1,1490.10989010989,0.975690975690975,31.6595771941356
1743291530172,19:38:50.172,-1,1453.47985347985,0.975690975690975,31.6595771941356
1743291530191,19:38:50.191,-1,1417.58241758242,0.975690975690975,31.6595771941356
1743291530211,19:38:50.211,-1,1402.9304029304,0.976134976134976,31.6595771941356
1743291530230,19:38:50.230,-1,1410.98901098901,0.976134976134976,31.6595771941356
1743291530250,19:38:50.250,-1,1405.86080586081,0.976134976134976,31.6595771941356
1743291530269,19:38:50.269,-1,1386.81318681319,0.976134976134976,31.6595771941356
1743291530289,19:38:50.289,-1,1368.49816849817,0.976134976134976,31.6595771941356
1743291530308,19:38:50.308,-1,1349.45054945055,0.976578976578977,31.6595771941356
1743291530328,19:38:50.328,-1,1339.92673992674,0.976578976578977,31.6595771941356
1743291530347,19:38:50.347,-1,1339.19413919414,0.976578976578977,31.6595771941356
1743291530367,19:38:50.367,-1,1325.27472527473,0.977022977022977,31.6595771941356
1743291530386,19:38:50.386,-1,1300.3663003663,0.977022977022977,31.6595771941356
1743291530406,19:38:50.406,-1,1293.77289377289,0.977022977022977,31.6595771941356
1743291530425,19:38:50.425,-1,1304.0293040293,0.977466977466978,31.6595771941356
1743291530445,19:38:50.445,-1,1319.41391941392,0.977466977466978,31.6595771941356
1743291530464,19:38:50.464,-1,1329.67032967033,0.977022977022977,31.6595771941356
1743291530484,19:38:50.484,-1,1321.61172161172,0.977466977466978,31.6595771941356
1743291530503,19:38:50.503,-1,1312.82051282051,0.977466977466978,31.6595771941356
1743291530523,19:38:50.523,-1,1298.9010989011,0.977466977466978,31.6645825848682
1743291530542,19:38:50.542,-1,1287.17948717949,0.977466977466978,31.6645825848682
1743291530562,19:38:50.562,-1,1287.91208791209,0.977910977910978,31.6645825848682
1743291530581,19:38:50.581,-1,1301.0989010989,0.977910977910978,31.6645825848682
1743291530601,19:38:50.601,-1,1326.00732600733,0.977910977910978,31.6645825848682
1743291530620,19:38:50.620,-1,1388.27838827839,0.977466977466978,31.6645825848682
1743291530640,19:38:50.640,-1,1468.86446886447,0.977022977022977,31.6645825848682
1743291530659,19:38:50.659,-1,1552.38095238095,0.977022977022977,31.6645825848682
1743291530679,19:38:50.679,-1,1632.23443223443,0.976578976578977,31.6645825848682
1743291530698,19:38:50.698,-1,1687.17948717949,0.975690975690975,31.6645825848682
1743291530718,19:38:50.718,-1,1715.75091575092,0.975246975246975,31.6645825848682
1743291530737,19:38:50.737,-1,1729.67032967033,0.974802974802975,31.6645825848682
1743291530757,19:38:50.757,-1,1742.85714285714,0.974358974358974,31.6645825848682
1743291530776,19:38:50.776,-1,1741.39194139194,0.973914973914974,31.6645825848682
1743291530796,19:38:50.796,-1,1732.60073260073,0.973470973470973,31.6645825848682
1743291530815,19:38:50.815,-1,1728.20512820513,0.973026973026973,31.6645825848682
1743291530835,19:38:50.835,-1,1686.44688644689,0.973026973026973,31.6645825848682
1743291530854,19:38:50.854,-1,1552.38095238095,0.972582972582972,31.6645825848682
1743291530874,19:38:50.874,-1,1408.79120879121,0.972138972138972,31.6645825848682
1743291530893,19:38:50.893,-1,1320.87912087912,0.972138972138972,31.6645825848682
1743291530913,19:38:50.913,-1,1312.82051282051,0.971694971694972,31.6645825848682
1743291530932,19:38:50.932,-1,1327.47252747253,0.971694971694972,31.6645825848682
1743291530952,19:38:50.952,-1,1342.12454212454,0.971694971694972,31.6645825848682
1743291530971,19:38:50.971,-1,1350.18315018315,0.971250971250971,31.6645825848682
1743291530991,19:38:50.991,-1,1369.23076923077,0.971250971250971,31.6645825848682
1743291531010,19:38:51.010,-1,1382.41758241758,0.971250971250971,31.6645825848682
1743291531030,19:38:51.030,-1,1383.88278388278,0.971250971250971,31.6645825848682
1743291531049,19:38:51.049,-1,1380.95238095238,0.970806970806971,31.6645825848682
1743291531069,19:38:51.069,-1,1363.36996336996,0.970362970362971,31.6645825848682
1743291531088,19:38:51.088,-1,1347.98534798535,0.970362970362971,31.6645825848682
1743291531108,19:38:51.108,-1,1344.32234432234,0.970362970362971,31.6645825848682
1743291531127,19:38:51.127,-1,1327.47252747253,0.970362970362971,31.6645825848682
1743291531147,19:38:51.147,-1,1307.69230769231,0.96991896991897,31.6645825848682
1743291531166,19:38:51.166,-1,1279.85347985348,0.96991896991897,31.6645825848682
1743291531186,19:38:51.186,-1,1260.07326007326,0.96991896991897,31.6645825848682
1743291531205,19:38:51.205,-1,1245.42124542125,0.969474969474969,31.6645825848682
1743291531225,19:38:51.225,-1,1238.09523809524,0.969474969474969,31.6645825848682
1743291531244,19:38:51.244,-1,1231.50183150183,0.969030969030969,31.6645825848682
1743291531264,19:38:51.264,-1,1219.78021978022,0.969030969030969,31.6645825848682
1743291531283,19:38:51.283,-1,1200.7326007326,0.969030969030969,31.6645825848682
1743291531303,19:38:51.303,-1,1201.4652014652,0.968586968586968,31.6645825848682
1743291531322,19:38:51.322,-1,1216.11721611722,0.968586968586968,31.6645825848682
1743291531342,19:38:51.342,-1,1224.90842490842,0.968142968142968,31.6645825848682
1743291531361,19:38:51.361,-1,1213.91941391941,0.968586968586968,31.6645825848682
1743291531381,19:38:51.381,-1,1196.336996337,0.968586968586968,31.6645825848682
1743291531400,19:38:51.400,-1,1183.15018315018,0.968142968142968,31.6645825848682
1743291531420,19:38:51.420,-1,1177.28937728938,0.968142968142968,31.6645825848682
1743291531439,19:38:51.439,-1,1178.02197802198,0.967698967698968,31.6645825848682
1743291531459,19:38:51.459,-1,1174.35897435897,0.967698967698968,31.6645825848682
1743291531478,19:38:51.478,-1,1176.55677655678,0.967698967698968,31.6645825848682
1743291531498,19:38:51.498,-1,1175.82417582418,0.967698967698968,31.6645825848682
1743291531517,19:38:51.517,-1,1201.4652014652,0.967698967698968,31.6896094512194
1743291531537,19:38:51.537,-1,1252.74725274725,0.967254967254967,31.6896094512194
1743291531556,19:38:51.556,-1,1252.74725274725,0.967254967254967,31.6896094512194
1743291531576,19:38:51.576,-1,1419.04761904762,0.966366966366967,31.6896094512194
1743291531595,19:38:51.595,-1,1487.91208791209,0.965922965922966,31.6896094512194
1743291531615,19:38:51.615,-1,1526.00732600733,0.965034965034965,31.6896094512194
1743291531634,19:38:51.634,-1,1544.32234432234,0.964590964590964,31.6896094512194
1743291531654,19:38:51.654,-1,1553.84615384615,0.963702963702963,31.6896094512194
1743291531673,19:38:51.673,-1,1565.56776556777,0.963258963258963,31.6896094512194
1743291531693,19:38:51.693,-1,1573.62637362637,0.962814962814963,31.6896094512194
1743291531712,19:38:51.712,-1,1570.69597069597,0.962370962370962,31.6896094512194
1743291531732,19:38:51.732,-1,1554.57875457875,0.961926961926962,31.6896094512194
1743291531751,19:38:51.751,-1,1543.58974358974,0.961482961482961,31.6896094512194
1743291531771,19:38:51.771,-1,1534.06593406593,0.961038961038961,31.6896094512194
1743291531791,19:38:51.790,-1,1507.69230769231,0.96059496059496,31.6896094512194
1743291531810,19:38:51.810,-1,1475.45787545788,0.96015096015096,31.6896094512194
1743291531830,19:38:51.829,-1,1445.42124542125,0.96015096015096,31.6896094512194
1743291531849,19:38:51.849,-1,1429.30402930403,0.95970695970696,31.6896094512194
1743291531869,19:38:51.868,-1,1416.84981684982,0.959262959262959,31.6896094512194
1743291531888,19:38:51.888,-1,1426.37362637363,0.958818958818959,31.6896094512194
1743291531908,19:38:51.907,-1,1421.24542124542,0.958818958818959,31.6896094512194
1743291531927,19:38:51.927,-1,1401.4652014652,0.958818958818959,31.6896094512194
1743291531947,19:38:51.947,-1,1391.20879120879,0.958374958374958,31.6896094512194
1743291531966,19:38:51.966,-1,1391.20879120879,0.958374958374958,31.6896094512194
1743291531986,19:38:51.986,-1,1389.74358974359,0.957930957930958,31.6896094512194
1743291532005,19:38:52.005,-1,1378.02197802198,0.957486957486957,31.6896094512194
1743291532025,19:38:52.025,-1,1367.03296703297,0.957042957042957,31.6896094512194
1743291532044,19:38:52.044,-1,1364.10256410256,0.957486957486957,31.6896094512194
1743291532064,19:38:52.064,-1,1344.32234432234,0.957042957042957,31.6896094512194
1743291532083,19:38:52.083,-1,1314.28571428571,0.957042957042957,31.6896094512194
1743291532103,19:38:52.103,-1,1290.10989010989,0.956598956598956,31.6896094512194
1743291532122,19:38:52.122,-1,1273.26007326007,0.956598956598956,31.6896094512194
1743291532142,19:38:52.142,-1,1255.67765567766,0.956598956598956,31.6896094512194
1743291532161,19:38:52.161,-1,1249.08424908425,0.956154956154956,31.6896094512194
1743291532181,19:38:52.181,-1,1239.56043956044,0.956598956598956,31.6896094512194
1743291532200,19:38:52.200,-1,1226.37362637363,0.956154956154956,31.6896094512194
1743291532220,19:38:52.220,-1,1206.59340659341,0.956154956154956,31.6896094512194
1743291532239,19:38:52.239,-1,1197.0695970696,0.955710955710956,31.6896094512194
1743291532259,19:38:52.259,-1,1194.87179487179,0.955710955710956,31.6896094512194
1743291532278,19:38:52.278,-1,1200.7326007326,0.955710955710956,31.6896094512194
1743291532298,19:38:52.298,-1,1213.18681318681,0.955710955710956,31.6896094512194
1743291532317,19:38:52.317,-1,1225.64102564103,0.955266955266955,31.6896094512194
1743291532337,19:38:52.337,-1,1258.60805860806,0.954822954822955,31.6896094512194
1743291532356,19:38:52.356,-1,1318.68131868132,0.954378954378954,31.6896094512194
1743291532376,19:38:52.376,-1,1389.01098901099,0.954378954378954,31.6896094512194
1743291532395,19:38:52.395,-1,1444.68864468864,0.953934953934954,31.6896094512194
1743291532415,19:38:52.415,-1,1473.99267399267,0.953046953046953,31.6896094512194
1743291532434,19:38:52.434,-1,1493.77289377289,0.952602952602952,31.6896094512194
1743291532454,19:38:52.454,-1,1494.50549450549,0.952158952158952,31.6896094512194
1743291532473,19:38:52.473,-1,1481.31868131868,0.951270951270951,31.6896094512194
1743291532493,19:38:52.493,-1,1467.39926739927,0.950826950826951,31.6896094512194
1743291532512,19:38:52.512,-1,1456.41025641026,0.95038295038295,31.6996201570146
1743291532532,19:38:52.532,-1,1441.75824175824,0.95038295038295,31.6996201570146
1743291532551,19:38:52.551,-1,1441.75824175824,0.94993894993895,31.6996201570146
1743291532571,19:38:52.571,-1,1433.69963369963,0.949050949050949,31.6996201570146
1743291532590,19:38:52.590,-1,1416.84981684982,0.949050949050949,31.6996201570146
1743291532610,19:38:52.610,-1,1399.2673992674,0.949050949050949,31.6996201570146
1743291532629,19:38:52.629,-1,1394.13919413919,0.948606948606948,31.6996201570146
1743291532649,19:38:52.649,-1,1397.8021978022,0.948606948606948,31.6996201570146
1743291532668,19:38:52.668,-1,1392.67399267399,0.948606948606948,31.6996201570146
1743291532688,19:38:52.688,-1,1383.15018315018,0.948162948162948,31.6996201570146
1743291532707,19:38:52.707,-1,1370.69597069597,0.947718947718947,31.6996201570146
1743291532727,19:38:52.727,-1,1358.24175824176,0.947718947718947,31.6996201570146
1743291532746,19:38:52.746,-1,1338.46153846154,0.947274947274947,31.6996201570146
1743291532766,19:38:52.766,-1,1317.94871794872,0.947274947274947,31.6996201570146
1743291532785,19:38:52.785,-1,1306.22710622711,0.946830946830947,31.6996201570146
1743291532805,19:38:52.805,-1,1311.35531135531,0.946386946386946,31.6996201570146
1743291532824,19:38:52.824,-1,1317.94871794872,0.946386946386946,31.6996201570146
1743291532844,19:38:52.844,-1,1306.22710622711,0.946386946386946,31.6996201570146
1743291532863,19:38:52.863,-1,1280.58608058608,0.945942945942946,31.6996201570146
1743291532883,19:38:52.883,-1,1252.01465201465,0.945942945942946,31.6996201570146
1743291532902,19:38:52.902,-1,1230.03663003663,0.945498945498945,31.6996201570146
1743291532922,19:38:52.922,-1,1210.98901098901,0.945498945498945,31.6996201570146
1743291532941,19:38:52.941,-1,1206.59340659341,0.945054945054945,31.6996201570146
1743291532961,19:38:52.961,-1,1218.31501831502,0.944610944610945,31.6996201570146
1743291532980,19:38:52.980,-1,1219.78021978022,0.944610944610945,31.6996201570146
1743291533000,19:38:53.000,-1,1220.51282051282,0.944610944610945,31.6996201570146
1743291533019,19:38:53.019,-1,1219.78021978022,0.944166944166944,31.6996201570146
1743291533039,19:38:53.039,-1,1223.44322344322,0.943722943722944,31.6996201570146
1743291533058,19:38:53.058,-1,1237.36263736264,0.943722943722944,31.6996201570146
1743291533078,19:38:53.078,-1,1247.61904761905,0.943278943278943,31.6996201570146
1743291533097,19:38:53.097,-1,1248.35164835165,0.943278943278943,31.6996201570146
1743291533117,19:38:53.117,-1,1251.28205128205,0.943278943278943,31.6996201570146
1743291533136,19:38:53.136,-1,1279.85347985348,0.943278943278943,31.6996201570146
1743291533156,19:38:53.156,-1,1312.08791208791,0.942834942834943,31.6996201570146
1743291533175,19:38:53.175,-1,1362.63736263736,0.942390942390942,31.6996201570146
1743291533195,19:38:53.195,-1,1419.04761904762,0.941502941502941,31.6996201570146
1743291533214,19:38:53.214,-1,1459.34065934066,0.941058941058941,31.6996201570146
1743291533234,19:38:53.234,-1,1491.57509157509,0.94061494061494,31.6996201570146
1743291533253,19:38:53.253,-1,1521.61172161172,0.93972693972694,31.6996201570146
1743291533273,19:38:53.273,-1,1535.53113553114,0.939282939282939,31.6996201570146
1743291533292,19:38:53.292,-1,1542.12454212454,0.938838938838939,31.6996201570146
1743291533312,19:38:53.312,-1,1538.46153846154,0.938394938394938,31.6996201570146
1743291533331,19:38:53.331,-1,1529.67032967033,0.937950937950938,31.6996201570146
1743291533351,19:38:53.351,-1,1522.34432234432,0.937506937506937,31.6996201570146
1743291533370,19:38:53.370,-1,1507.69230769231,0.937062937062937,31.6996201570146
1743291533390,19:38:53.390,-1,1487.17948717949,0.936174936174936,31.6996201570146
1743291533409,19:38:53.409,-1,1461.53846153846,0.936618936618936,31.6996201570146
1743291533429,19:38:53.429,-1,1446.15384615385,0.936174936174936,31.6996201570146
1743291533448,19:38:53.448,-1,1429.30402930403,0.936174936174936,31.6996201570146
1743291533468,19:38:53.468,-1,1414.65201465201,0.935730935730936,31.6996201570146
1743291533487,19:38:53.487,-1,1394.87179487179,0.935286935286935,31.6996201570146
1743291533507,19:38:53.507,-1,1385.34798534799,0.935286935286935,31.7146361720515
1743291533526,19:38:53.526,-1,1387.54578754579,0.934842934842935,31.7146361720515
1743291533546,19:38:53.546,-1,1379.48717948718,0.934842934842935,31.7146361720515
1743291533565,19:38:53.565,-1,1377.28937728938,0.934398934398934,31.7146361720515
1743291533585,19:38:53.585,-1,1358.97435897436,0.933954933954934,31.7146361720515
1743291533604,19:38:53.604,-1,1326.00732600733,0.933954933954934,31.7146361720515
1743291533624,19:38:53.624,-1,1300.3663003663,0.933510933510933,31.7146361720515
1743291533643,19:38:53.643,-1,1303.2967032967,0.933954933954934,31.7146361720515
1743291533663,19:38:53.663,-1,1305.49450549451,0.933954933954934,31.7146361720515
1743291533682,19:38:53.682,-1,1309.15750915751,0.933510933510933,31.7146361720515
1743291533702,19:38:53.702,-1,1309.89010989011,0.933066933066933,31.7146361720515
1743291533721,19:38:53.721,-1,1292.30769230769,0.933066933066933,31.7146361720515
1743291533741,19:38:53.741,-1,1278.38827838828,0.933066933066933,31.7146361720515
1743291533760,19:38:53.760,-1,1267.39926739927,0.932622932622933,31.7146361720515
1743291533780,19:38:53.780,-1,1260.07326007326,0.932622932622933,31.7146361720515
1743291533799,19:38:53.799,-1,1250.54945054945,0.932622932622933,31.7146361720515
1743291533819,19:38:53.819,-1,1253.47985347985,0.932178932178932,31.7146361720515
1743291533838,19:38:53.838,-1,1258.60805860806,0.932178932178932,31.7146361720515
1743291533858,19:38:53.858,-1,1235.89743589744,0.931734931734932,31.7146361720515
1743291533877,19:38:53.877,-1,1214.65201465201,0.932178932178932,31.7146361720515
1743291533897,19:38:53.897,-1,1206.59340659341,0.932178932178932,31.7146361720515
1743291533916,19:38:53.916,-1,1213.91941391941,0.931734931734932,31.7146361720515
1743291533936,19:38:53.936,-1,1215.38461538462,0.931290931290931,31.7146361720515
1743291533955,19:38:53.955,-1,1241.02564102564,0.931290931290931,31.7146361720515
1743291533975,19:38:53.975,-1,1310.62271062271,0.930846930846931,31.7146361720515
1743291533994,19:38:53.994,-1,1393.40659340659,0.930846930846931,31.7146361720515
1743291534014,19:38:54.014,-1,1465.93406593407,0.93040293040293,31.7146361720515
1743291534033,19:38:54.033,-1,1515.01831501831,0.929514929514929,31.7146361720515
1743291534053,19:38:54.053,-1,1542.12454212454,0.929070929070929,31.7146361720515
1743291534072,19:38:54.072,-1,1547.98534798535,0.928182928182928,31.7146361720515
1743291534092,19:38:54.092,-1,1547.98534798535,0.928182928182928,31.7146361720515
1743291534111,19:38:54.111,-1,1558.24175824176,0.927294927294927,31.7146361720515
1743291534131,19:38:54.131,-1,1579.48717948718,0.927294927294927,31.7146361720515
1743291534150,19:38:54.150,-1,1595.6043956044,0.926850926850927,31.7146361720515
1743291534170,19:38:54.170,-1,1602.1978021978,0.925962925962926,31.7146361720515
1743291534189,19:38:54.189,-1,1582.41758241758,0.925518925518925,31.7146361720515
1743291534209,19:38:54.209,-1,1544.32234432234,0.925518925518925,31.7146361720515
1743291534228,19:38:54.228,-1,1501.8315018315,0.925074925074925,31.7146361720515
1743291534248,19:38:54.248,-1,1462.27106227106,0.925074925074925,31.7146361720515
1743291534267,19:38:54.267,-1,1439.56043956044,0.924630924630925,31.7146361720515
1743291534287,19:38:54.287,-1,1436.63003663004,0.924186924186924,31.7146361720515
1743291534306,19:38:54.306,-1,1449.81684981685,0.924186924186924,31.7146361720515
1743291534326,19:38:54.326,-1,1449.08424908425,0.924186924186924,31.7146361720515
1743291534345,19:38:54.345,-1,1443.22344322344,0.923742923742924,31.7146361720515
1743291534365,19:38:54.365,-1,1434.43223443223,0.923742923742924,31.7146361720515
1743291534384,19:38:54.384,-1,1418.31501831502,0.923298923298923,31.7146361720515
1743291534404,19:38:54.404,-1,1395.6043956044,0.923298923298923,31.7146361720515
1743291534423,19:38:54.423,-1,1363.36996336996,0.922854922854923,31.7146361720515
1743291534443,19:38:54.443,-1,1339.92673992674,0.922854922854923,31.7146361720515
1743291534462,19:38:54.462,-1,1328.93772893773,0.922854922854923,31.7146361720515
1743291534482,19:38:54.482,-1,1324.54212454212,0.922854922854923,31.7146361720515
1743291534501,19:38:54.501,-1,1321.61172161172,0.922410922410922,31.7346574439434
1743291534521,19:38:54.521,-1,1309.89010989011,0.922410922410922,31.7346574439434
1743291534540,19:38:54.540,-1,1312.82051282051,0.921966921966922,31.7346574439434
1743291534560,19:38:54.560,-1,1313.55311355311,0.921966921966922,31.7346574439434
1743291534579,19:38:54.579,-1,1299.6336996337,0.921966921966922,31.7346574439434
1743291534599,19:38:54.599,-1,1283.51648351648,0.921966921966922,31.7346574439434
1743291534618,19:38:54.618,-1,1283.51648351648,0.921966921966922,31.7346574439434
1743291534638,19:38:54.638,-1,1279.85347985348,0.921966921966922,31.7346574439434
1743291534657,19:38:54.657,-1,1275.45787545788,0.921966921966922,31.7346574439434
1743291534677,19:38:54.677,-1,1268.86446886447,0.921966921966922,31.7346574439434
1743291534696,19:38:54.696,-1,1260.80586080586,0.921966921966922,31.7346574439434
1743291534716,19:38:54.716,-1,1255.67765567766,0.921966921966922,31.7346574439434
1743291534735,19:38:54.735,-1,1259.34065934066,0.921522921522922,31.7346574439434
1743291534755,19:38:54.755,-1,1247.61904761905,0.921522921522922,31.7346574439434
1743291534774,19:38:54.774,-1,1241.75824175824,0.921078921078921,31.7346574439434
1743291534794,19:38:54.794,-1,1244.68864468864,0.921522921522922,31.7346574439434
1743291534813,19:38:54.813,-1,1246.88644688645,0.921078921078921,31.7346574439434
1743291534833,19:38:54.833,-1,1274.72527472527,0.921078921078921,31.7346574439434
1743291534852,19:38:54.852,-1,1331.86813186813,0.920634920634921,31.7346574439434
1743291534872,19:38:54.872,-1,1391.94139194139,0.92019092019092,31.7346574439434
1743291534891,19:38:54.891,-1,1463.00366300366,0.91974691974692,31.7346574439434
1743291534911,19:38:54.911,-1,1519.41391941392,0.919302919302919,31.7346574439434
1743291534930,19:38:54.930,-1,1542.85714285714,0.918858918858919,31.7346574439434
1743291534950,19:38:54.950,-1,1558.24175824176,0.918414918414918,31.7346574439434
1743291534969,19:38:54.969,-1,1572.89377289377,0.917526917526918,31.7346574439434
1743291534989,19:38:54.989,-1,1591.20879120879,0.917082917082917,31.7346574439434
1743291535008,19:38:55.008,-1,1586.08058608059,0.916638916638917,31.7346574439434
1743291535028,19:38:55.028,-1,1597.0695970696,0.916194916194916,31.7346574439434
1743291535047,19:38:55.047,-1,1600,0.915750915750916,31.7346574439434
1743291535067,19:38:55.067,-1,1599.2673992674,0.915750915750916,31.7346574439434
1743291535086,19:38:55.086,-1,1582.41758241758,0.915306915306915,31.7346574439434
1743291535106,19:38:55.106,-1,1535.53113553114,0.914862914862915,31.7346574439434
1743291535125,19:38:55.125,-1,1498.9010989011,0.914862914862915,31.7346574439434
1743291535145,19:38:55.145,-1,1469.59706959707,0.914862914862915,31.7346574439434
1743291535164,19:38:55.164,-1,1446.15384615385,0.914418914418914,31.7346574439434
1743291535184,19:38:55.184,-1,1435.16483516484,0.913974913974914,31.7346574439434
1743291535203,19:38:55.203,-1,1428.57142857143,0.913974913974914,31.7346574439434
1743291535223,19:38:55.223,-1,1428.57142857143,0.913530913530914,31.7346574439434
1743291535242,19:38:55.242,-1,1433.69963369963,0.913530913530914,31.7346574439434
1743291535262,19:38:55.262,-1,1429.30402930403,0.913530913530914,31.7346574439434
1743291535281,19:38:55.281,-1,1412.45421245421,0.913086913086913,31.7346574439434
1743291535301,19:38:55.301,-1,1384.61538461538,0.912642912642912,31.7346574439434
1743291535320,19:38:55.320,-1,1355.31135531136,0.912642912642912,31.7346574439434
1743291535340,19:38:55.340,-1,1339.92673992674,0.912198912198912,31.7346574439434
1743291535359,19:38:55.359,-1,1328.93772893773,0.912642912642912,31.7346574439434
1743291535379,19:38:55.379,-1,1316.48351648352,0.912198912198912,31.7346574439434
1743291535398,19:38:55.398,-1,1304.0293040293,0.912642912642912,31.7346574439434
1743291535418,19:38:55.418,-1,1289.37728937729,0.912198912198912,31.7346574439434
1743291535437,19:38:55.437,-1,1279.85347985348,0.911754911754912,31.7346574439434
1743291535457,19:38:55.457,-1,1263.00366300366,0.911754911754912,31.7346574439434
1743291535476,19:38:55.476,-1,1245.42124542125,0.911754911754912,31.7346574439434
1743291535496,19:38:55.496,-1,1235.89743589744,0.911754911754912,31.7546786227031
1743291535515,19:38:55.515,-1,1243.22344322344,0.911754911754912,31.7546786227031
1743291535535,19:38:55.535,-1,1263.73626373626,0.911310911310911,31.7546786227031
1743291535554,19:38:55.554,-1,1271.06227106227,0.911310911310911,31.7546786227031
1743291535574,19:38:55.574,-1,1257.87545787546,0.911310911310911,31.7546786227031
1743291535593,19:38:55.593,-1,1240.29304029304,0.911310911310911,31.7546786227031
1743291535613,19:38:55.613,-1,1228.57142857143,0.911310911310911,31.7546786227031
1743291535632,19:38:55.632,-1,1224.17582417582,0.911310911310911,31.7546786227031
1743291535652,19:38:55.652,-1,1216.11721611722,0.910866910866911,31.7546786227031
1743291535671,19:38:55.671,-1,1210.98901098901,0.910866910866911,31.7546786227031
1743291535691,19:38:55.691,-1,1210.98901098901,0.910866910866911,31.7546786227031
1743291535710,19:38:55.710,-1,1239.56043956044,0.910866910866911,31.7546786227031
1743291535730,19:38:55.730,-1,1292.30769230769,0.910866910866911,31.7546786227031
1743291535749,19:38:55.749,-1,1341.39194139194,0.910866910866911,31.7546786227031
1743291535769,19:38:55.769,-1,1398.5347985348,0.91042291042291,31.7546786227031
1743291535788,19:38:55.788,-1,1443.95604395604,0.90953490953491,31.7546786227031
1743291535808,19:38:55.808,-1,1479.85347985348,0.90953490953491,31.7546786227031
1743291535827,19:38:55.827,-1,1499.6336996337,0.908646908646909,31.7546786227031
1743291535847,19:38:55.847,-1,1509.89010989011,0.908202908202908,31.7546786227031
1743291535866,19:38:55.866,-1,1534.06593406593,0.907758907758908,31.7546786227031
1743291535886,19:38:55.886,-1,1547.98534798535,0.907314907314907,31.7546786227031
1743291535905,19:38:55.905,-1,1547.98534798535,0.906426906426906,31.7546786227031
1743291535925,19:38:55.925,-1,1546.52014652015,0.906426906426906,31.7546786227031
1743291535944,19:38:55.944,-1,1535.53113553114,0.906426906426906,31.7546786227031
1743291535964,19:38:55.964,-1,1510.62271062271,0.905982905982906,31.7546786227031
1743291535983,19:38:55.983,-1,1491.57509157509,0.905982905982906,31.7546786227031
1743291536003,19:38:56.003,-1,1482.05128205128,0.905538905538905,31.7546786227031
1743291536022,19:38:56.022,-1,1464.46886446886,0.905094905094905,31.7546786227031
1743291536042,19:38:56.042,-1,1443.95604395604,0.905094905094905,31.7546786227031
1743291536061,19:38:56.061,-1,1416.84981684982,0.905094905094905,31.7546786227031
1743291536081,19:38:56.081,-1,1410.25641025641,0.904650904650905,31.7546786227031
1743291536100,19:38:56.100,-1,1407.32600732601,0.904206904206904,31.7546786227031
1743291536120,19:38:56.120,-1,1410.25641025641,0.904206904206904,31.7546786227031
1743291536139,19:38:56.139,-1,1399.2673992674,0.903762903762904,31.7546786227031
1743291536159,19:38:56.159,-1,1383.88278388278,0.903762903762904,31.7546786227031
1743291536178,19:38:56.178,-1,1372.16117216117,0.903762903762904,31.7546786227031
1743291536198,19:38:56.198,-1,1355.31135531136,0.903318903318903,31.7546786227031
1743291536217,19:38:56.217,-1,1338.46153846154,0.903318903318903,31.7546786227031
1743291536237,19:38:56.237,-1,1330.40293040293,0.902874902874903,31.7546786227031
1743291536256,19:38:56.256,-1,1329.67032967033,0.902874902874903,31.7546786227031
1743291536276,19:38:56.276,-1,1320.87912087912,0.902874902874903,31.7546786227031
1743291536295,19:38:56.295,-1,1318.68131868132,0.902874902874903,31.7546786227031
1743291536315,19:38:56.315,-1,1322.34432234432,0.902874902874903,31.7546786227031
1743291536334,19:38:56.334,-1,1316.48351648352,0.902430902430902,31.7546786227031
1743291536354,19:38:56.354,-1,1308.42490842491,0.902430902430902,31.7546786227031
1743291536373,19:38:56.373,-1,1301.8315018315,0.902430902430902,31.7546786227031
1743291536393,19:38:56.393,-1,1288.64468864469,0.902430902430902,31.7546786227031
1743291536412,19:38:56.412,-1,1279.85347985348,0.902430902430902,31.7546786227031
1743291536432,19:38:56.432,-1,1266.66666666667,0.902430902430902,31.7546786227031
1743291536451,19:38:56.451,-1,1265.93406593407,0.901986901986902,31.7546786227031
1743291536471,19:38:56.471,-1,1265.93406593407,0.901986901986902,31.7546786227031
1743291536490,19:38:56.490,-1,1279.12087912088,0.901986901986902,31.7646891771583
1743291536510,19:38:56.510,-1,1298.1684981685,0.901986901986902,31.7646891771583
1743291536529,19:38:56.529,-1,1344.32234432234,0.901542901542901,31.7646891771583
1743291536549,19:38:56.549,-1,1396.336996337,0.901098901098901,31.7646891771583
1743291536568,19:38:56.568,-1,1435.89743589744,0.900654900654901,31.7646891771583
1743291536588,19:38:56.588,-1,1479.12087912088,0.8997668997669,31.7646891771583
1743291536607,19:38:56.607,-1,1518.68131868132,0.899322899322899,31.7646891771583
1743291536627,19:38:56.627,-1,1542.12454212454,0.898878898878899,31.7646891771583
1743291536646,19:38:56.646,-1,1546.52014652015,0.898434898434898,31.7646891771583
1743291536666,19:38:56.666,-1,1536.26373626374,0.897990897990898,31.7646891771583
1743291536685,19:38:56.685,-1,1532.60073260073,0.897546897546897,31.7646891771583
1743291536705,19:38:56.705,-1,1530.40293040293,0.897546897546897,31.7646891771583
1743291536724,19:38:56.724,-1,1520.14652014652,0.897102897102897,31.7646891771583
1743291536744,19:38:56.744,-1,1490.10989010989,0.896658896658897,31.7646891771583
1743291536763,19:38:56.763,-1,1454.94505494505,0.896658896658897,31.7646891771583
1743291536783,19:38:56.783,-1,1428.57142857143,0.896658896658897,31.7646891771583
1743291536802,19:38:56.802,-1,1400,0.896214896214896,31.7646891771583
1743291536822,19:38:56.822,-1,1381.68498168498,0.895770895770896,31.7646891771583
1743291536841,19:38:56.841,-1,1384.61538461538,0.895770895770896,31.7646891771583
1743291536861,19:38:56.861,-1,1405.86080586081,0.895770895770896,31.7646891771583
1743291536880,19:38:56.880,-1,1416.84981684982,0.895326895326895,31.7646891771583
1743291536900,19:38:56.900,-1,1430.76923076923,0.894882894882895,31.7646891771583
1743291536919,19:38:56.919,-1,1430.76923076923,0.894882894882895,31.7646891771583
1743291536939,19:38:56.939,-1,1406.59340659341,0.894438894438894,31.7646891771583
1743291536958,19:38:56.958,-1,1374.35897435897,0.894438894438894,31.7646891771583
1743291536978,19:38:56.978,-1,1347.98534798535,0.894438894438894,31.7646891771583
1743291536997,19:38:56.997,-1,1321.61172161172,0.894438894438894,31.7646891771583
1743291537017,19:38:57.017,-1,1304.7619047619,0.894438894438894,31.7646891771583
1743291537036,19:38:57.036,-1,1298.9010989011,0.893994893994894,31.7646891771583
1743291537056,19:38:57.056,-1,1293.77289377289,0.893550893550894,31.7646891771583
1743291537075,19:38:57.075,-1,1290.84249084249,0.893550893550894,31.7646891771583
1743291537095,19:38:57.095,-1,1293.04029304029,0.893994893994894,31.7646891771583
1743291537114,19:38:57.114,-1,1303.2967032967,0.893994893994894,31.7646891771583
1743291537134,19:38:57.134,-1,1293.77289377289,0.893550893550894,31.7646891771583
1743291537153,19:38:57.153,-1,1285.71428571429,0.893550893550894,31.7646891771583
1743291537173,19:38:57.173,-1,1276.19047619048,0.893550893550894,31.7646891771583
1743291537192,19:38:57.192,-1,1259.34065934066,0.893106893106893,31.7646891771583
1743291537212,19:38:57.212,-1,1248.35164835165,0.893550893550894,31.7646891771583
1743291537231,19:38:57.231,-1,1241.75824175824,0.893106893106893,31.7646891771583
1743291537251,19:38:57.251,-1,1241.75824175824,0.893106893106893,31.7646891771583
1743291537270,19:38:57.270,-1,1258.60805860806,0.892662892662893,31.7646891771583
1743291537290,19:38:57.290,-1,1299.6336996337,0.892662892662893,31.7646891771583
1743291537309,19:38:57.309,-1,1358.97435897436,0.892662892662893,31.7646891771583
1743291537329,19:38:57.329,-1,1417.58241758242,0.892218892218892,31.7646891771583
1743291537348,19:38:57.348,-1,1465.20146520146,0.891774891774892,31.7646891771583
1743291537368,19:38:57.368,-1,1510.62271062271,0.890886890886891,31.7646891771583
1743291537387,19:38:57.387,-1,1546.52014652015,0.88999888999889,31.7646891771583
1743291537407,19:38:57.407,-1,1572.89377289377,0.889554889554889,31.7646891771583
1743291537426,19:38:57.426,-1,1590.47619047619,0.889554889554889,31.7646891771583
1743291537446,19:38:57.446,-1,1596.336996337,0.888666888666889,31.7646891771583
1743291537465,19:38:57.465,-1,1594.87179487179,0.888666888666889,31.7646891771583
1743291537485,19:38:57.485,-1,1581.68498168498,0.887778887778888,31.7847102162195
1743291537504,19:38:57.504,-1,1567.03296703297,0.887334887334887,31.7847102162195
1743291537524,19:38:57.524,-1,1575.82417582418,0.886890886890887,31.7847102162195
1743291537543,19:38:57.543,-1,1572.16117216117,0.886890886890887,31.7847102162195
1743291537563,19:38:57.563,-1,1551.64835164835,0.886890886890887,31.7847102162195
1743291537582,19:38:57.582,-1,1518.68131868132,0.886446886446886,31.7847102162195
1743291537602,19:38:57.602,-1,1493.04029304029,0.886446886446886,31.7847102162195
1743291537621,19:38:57.621,-1,1484.24908424908,0.886002886002886,31.7847102162195
1743291537641,19:38:57.641,-1,1468.86446886447,0.886002886002886,31.7847102162195
1743291537660,19:38:57.660,-1,1455.67765567766,0.885558885558885,31.7847102162195
1743291537680,19:38:57.680,-1,1446.15384615385,0.885558885558885,31.7847102162195
1743291537699,19:38:57.699,-1,1435.16483516484,0.885114885114885,31.7847102162195
1743291537719,19:38:57.719,-1,1436.63003663004,0.884670884670885,31.7847102162195
1743291537738,19:38:57.738,-1,1431.50183150183,0.884670884670885,31.7847102162195
1743291537758,19:38:57.758,-1,1415.38461538462,0.884670884670885,31.7847102162195
1743291537777,19:38:57.777,-1,1397.0695970696,0.884226884226884,31.7847102162195
1743291537797,19:38:57.797,-1,1365.56776556777,0.884226884226884,31.7847102162195
1743291537816,19:38:57.816,-1,1344.32234432234,0.884226884226884,31.7847102162195
1743291537836,19:38:57.836,-1,1326.73992673993,0.883782883782884,31.7847102162195
1743291537855,19:38:57.855,-1,1325.27472527473,0.883782883782884,31.7847102162195
1743291537875,19:38:57.875,-1,1323.80952380952,0.883782883782884,31.7847102162195
1743291537894,19:38:57.894,-1,1326.00732600733,0.883782883782884,31.7847102162195
1743291537914,19:38:57.914,-1,1332.60073260073,0.883782883782884,31.7847102162195
1743291537933,19:38:57.933,-1,1331.13553113553,0.883782883782884,31.7847102162195
1743291537953,19:38:57.953,-1,1321.61172161172,0.883338883338883,31.7847102162195
1743291537972,19:38:57.972,-1,1301.8315018315,0.883338883338883,31.7847102162195
1743291537992,19:38:57.992,-1,1279.12087912088,0.883338883338883,31.7847102162195
1743291538011,19:38:58.011,-1,1260.07326007326,0.883338883338883,31.7847102162195
1743291538031,19:38:58.031,-1,1246.15384615385,0.882894882894883,31.7847102162195
1743291538050,19:38:58.050,-1,1248.35164835165,0.882894882894883,31.7847102162195
1743291538070,19:38:58.070,-1,1257.14285714286,0.882894882894883,31.7847102162195
1743291538089,19:38:58.089,-1,1287.17948717949,0.882894882894883,31.7847102162195
1743291538109,19:38:58.109,-1,1334.06593406593,0.882450882450882,31.7847102162195
1743291538128,19:38:58.128,-1,1389.74358974359,0.882450882450882,31.7847102162195
1743291538148,19:38:58.148,-1,1451.28205128205,0.882450882450882,31.7847102162195
1743291538167,19:38:58.167,-1,1512.82051282051,0.882006882006882,31.7847102162195
1743291538187,19:38:58.187,-1,1557.50915750916,0.881118881118881,31.7847102162195
1743291538206,19:38:58.206,-1,1599.2673992674,0.880674880674881,31.7847102162195
1743291538226,19:38:58.226,-1,1636.63003663004,0.88023088023088,31.7847102162195
1743291538245,19:38:58.245,-1,1673.26007326007,0.87978687978688,31.7847102162195
1743291538265,19:38:58.265,-1,1698.9010989011,0.879342879342879,31.7847102162195
1743291538284,19:38:58.284,-1,1693.04029304029,0.878898878898879,31.7847102162195
1743291538304,19:38:58.304,-1,1682.78388278388,0.878454878454878,31.7847102162195
1743291538323,19:38:58.323,-1,1684.24908424908,0.877566877566877,31.7847102162195
1743291538343,19:38:58.343,-1,1679.85347985348,0.877566877566877,31.7847102162195
1743291538362,19:38:58.362,-1,1646.88644688645,0.877122877122877,31.7847102162195
1743291538382,19:38:58.382,-1,1610.25641025641,0.877122877122877,31.7847102162195
1743291538401,19:38:58.401,-1,1575.82417582418,0.876678876678877,31.7847102162195
1743291538421,19:38:58.421,-1,1541.39194139194,0.876234876234876,31.7847102162195
1743291538440,19:38:58.440,-1,1523.80952380952,0.876234876234876,31.7847102162195
1743291538460,19:38:58.460,-1,1512.08791208791,0.876234876234876,31.7847102162195
1743291538479,19:38:58.479,-1,1498.9010989011,0.876234876234876,31.7997259343974
1743291538499,19:38:58.499,-1,1482.05128205128,0.875790875790876,31.7997259343974
1743291538518,19:38:58.518,-1,1464.46886446886,0.875346875346875,31.7997259343974
1743291538538,19:38:58.538,-1,1452.01465201465,0.875346875346875,31.7997259343974
1743291538557,19:38:58.557,-1,1443.22344322344,0.874902874902875,31.7997259343974
1743291538577,19:38:58.577,-1,1432.23443223443,0.874902874902875,31.7997259343974
1743291538596,19:38:58.596,-1,1406.59340659341,0.874902874902875,31.7997259343974
1743291538616,19:38:58.616,-1,1380.95238095238,0.874902874902875,31.7997259343974
1743291538635,19:38:58.635,-1,1361.17216117216,0.874902874902875,31.7997259343974
1743291538655,19:38:58.655,-1,1346.52014652015,0.874458874458874,31.7997259343974
1743291538674,19:38:58.674,-1,1343.58974358974,0.874014874014874,31.7997259343974
1743291538694,19:38:58.694,-1,1335.53113553114,0.874458874458874,31.7997259343974
1743291538713,19:38:58.713,-1,1322.34432234432,0.874014874014874,31.7997259343974
1743291538733,19:38:58.733,-1,1309.15750915751,0.874014874014874,31.7997259343974
