RawTimestamp,LocalTime,HR_Original,PPG,GSR,Temperature
1.74329E+12,14:48.0,-1,0,4.151648352,26.46084282
1.74329E+12,14:48.1,-1,0,4.151648352,26.46084282
1.74329E+12,14:48.1,-1,0,1.949957174,26.46084282
1.74329E+12,14:48.1,-1,0,1.949957174,26.46084282
1.74329E+12,14:48.1,-1,0,1.949957174,26.46084282
1.74329E+12,14:48.1,-1,0,1.949957174,26.46084282
1.74329E+12,14:48.2,-1,0,1.949957174,26.46084282
1.74329E+12,14:48.2,-1,0,1.917014461,26.46084282
1.74329E+12,14:48.2,-1,0,1.917014461,26.46084282
1.74329E+12,14:48.2,-1,0,1.917014461,26.46084282
1.74329E+12,14:48.2,-1,0,1.917014461,26.46084282
1.74329E+12,14:48.3,-1,0,1.917014461,26.46084282
1.74329E+12,14:48.3,-1,0,1.921611722,26.46084282
1.74329E+12,14:48.3,-1,0,1.921611722,26.46084282
1.74329E+12,14:48.3,-1,0,1.921611722,26.46084282
1.74329E+12,14:48.3,-1,0,1.921611722,26.46084282
1.74329E+12,14:48.4,-1,0,1.921611722,26.46084282
1.74329E+12,14:48.4,-1,0,1.921611722,26.46084282
1.74329E+12,14:48.4,-1,0,1.921611722,26.46084282
1.74329E+12,14:48.4,-1,0,1.921611722,26.46084282
1.74329E+12,14:48.4,-1,0,1.921611722,26.46084282
1.74329E+12,14:48.5,-1,0,1.921611722,26.46084282
1.74329E+12,14:48.5,-1,0,1.921611722,26.46084282
1.74329E+12,14:48.5,-1,0,1.921611722,26.46084282
1.74329E+12,14:48.5,-1,0,1.921611722,26.46084282
1.74329E+12,14:48.5,-1,0,1.921611722,26.46084282
1.74329E+12,14:48.6,-1,0,1.921611722,26.46084282
1.74329E+12,14:48.6,-1,0,1.92014652,26.46084282
1.74329E+12,14:48.6,-1,0,1.92014652,26.46084282
1.74329E+12,14:48.6,-1,0,1.921611722,26.46084282
1.74329E+12,14:48.6,-1,0,1.92014652,26.46084282
1.74329E+12,14:48.6,-1,0,1.92014652,26.46084282
1.74329E+12,14:48.7,-1,104.7619048,1.92014652,26.46084282
1.74329E+12,14:48.7,-1,398.5347985,1.92014652,26.46084282
1.74329E+12,14:48.7,-1,647.6190476,1.92014652,26.46084282
1.74329E+12,14:48.7,-1,818.3150183,1.92014652,26.46084282
1.74329E+12,14:48.7,-1,921.6117216,1.918681319,26.46084282
1.74329E+12,14:48.8,-1,1005.128205,1.92014652,26.46084282
1.74329E+12,14:48.8,-1,1122.344322,1.92014652,26.46084282
1.74329E+12,14:48.8,-1,1264.468864,1.92014652,26.46084282
1.74329E+12,14:48.8,-1,1401.465201,1.92014652,26.46084282
1.74329E+12,14:48.8,-1,1517.948718,1.92014652,26.46084282
1.74329E+12,14:48.9,-1,1601.465201,1.918681319,26.46084282
1.74329E+12,14:48.9,-1,1641.025641,1.918681319,26.46084282
1.74329E+12,14:48.9,-1,1646.886447,1.918681319,26.46084282
1.74329E+12,14:48.9,-1,1657.142857,1.92014652,26.46084282
1.74329E+12,14:48.9,-1,1645.421245,1.918681319,26.46084282
1.74329E+12,14:49.0,-1,1624.175824,1.918681319,35.41698636
1.74329E+12,14:49.0,-1,1591.208791,1.918681319,35.41698636
1.74329E+12,14:49.0,-1,1530.40293,1.918681319,35.41698636
1.74329E+12,14:49.0,-1,1476.923077,1.918681319,35.41698636
1.74329E+12,14:49.0,-1,1421.245421,1.917216117,35.41698636
1.74329E+12,14:49.1,-1,1374.358974,1.917216117,35.41698636
1.74329E+12,14:49.1,-1,1333.333333,1.917216117,35.41698636
1.74329E+12,14:49.1,-1,1306.959707,1.917216117,35.41698636
1.74329E+12,14:49.1,-1,1305.494505,1.917216117,35.41698636
1.74329E+12,14:49.1,-1,1309.157509,1.917216117,35.41698636
1.74329E+12,14:49.2,-1,1287.912088,1.917216117,35.41698636
1.74329E+12,14:49.2,-1,1265.201465,1.917216117,35.41698636
1.74329E+12,14:49.2,-1,1246.886447,1.915750916,35.41698636
1.74329E+12,14:49.2,-1,1249.81685,1.915750916,35.41698636
1.74329E+12,14:49.2,-1,1254.945055,1.915750916,35.41698636
1.74329E+12,14:49.3,-1,1235.897436,1.915750916,35.41698636
1.74329E+12,14:49.3,-1,1189.010989,1.915750916,35.41698636
1.74329E+12,14:49.3,-1,1158.974359,1.915750916,35.41698636
1.74329E+12,14:49.3,-1,1134.065934,1.915750916,35.41698636
1.74329E+12,14:49.3,-1,1123.809524,1.915750916,35.41698636
1.74329E+12,14:49.3,-1,1122.344322,1.915750916,35.41698636
1.74329E+12,14:49.4,-1,1115.750916,1.915750916,35.41698636
1.74329E+12,14:49.4,-1,1104.761905,1.915750916,35.41698636
1.74329E+12,14:49.4,-1,1095.238095,1.915750916,35.41698636
1.74329E+12,14:49.4,-1,1087.912088,1.915750916,35.41698636
1.74329E+12,14:49.4,-1,1071.062271,1.915750916,35.41698636
1.74329E+12,14:49.5,-1,1065.934066,1.915750916,35.41698636
1.74329E+12,14:49.5,-1,1056.410256,1.914285714,35.41698636
1.74329E+12,14:49.5,-1,1060.805861,1.915750916,35.41698636
1.74329E+12,14:49.5,-1,1075.457875,1.914285714,35.41698636
1.74329E+12,14:49.5,-1,1149.450549,1.914285714,35.41698636
1.74329E+12,14:49.6,-1,1290.10989,1.914285714,35.41698636
1.74329E+12,14:49.6,-1,1450.549451,1.914285714,35.41698636
1.74329E+12,14:49.6,-1,1583.150183,1.914285714,35.41698636
1.74329E+12,14:49.6,-1,1668.131868,1.914285714,35.41698636
1.74329E+12,14:49.6,-1,1708.424908,1.914285714,35.41698636
1.74329E+12,14:49.7,-1,1715.750916,1.914285714,35.41698636
1.74329E+12,14:49.7,-1,1701.098901,1.914285714,35.41698636
1.74329E+12,14:49.7,-1,1673.992674,1.914285714,35.41698636
1.74329E+12,14:49.7,-1,1654.212454,1.912820513,35.41698636
1.74329E+12,14:49.7,-1,1638.827839,1.912820513,35.41698636
1.74329E+12,14:49.8,-1,1624.908425,1.912820513,35.41698636
1.74329E+12,14:49.8,-1,1573.626374,1.914285714,35.41698636
1.74329E+12,14:49.8,-1,1512.820513,1.912820513,35.41698636
1.74329E+12,14:49.8,-1,1460.07326,1.912820513,35.41698636
1.74329E+12,14:49.8,-1,1416.849817,1.912820513,35.41698636
1.74329E+12,14:49.9,-1,1386.813187,1.912820513,35.41698636
1.74329E+12,14:49.9,-1,1356.776557,1.912820513,35.41698636
1.74329E+12,14:49.9,-1,1331.135531,1.912820513,35.41698636
1.74329E+12,14:49.9,-1,1312.820513,1.912820513,35.41698636
1.74329E+12,14:49.9,-1,1312.820513,1.912820513,35.41698636
1.74329E+12,14:50.0,-1,1311.355311,1.912820513,35.45699435
1.74329E+12,14:50.0,-1,1315.018315,1.912820513,35.45699435
1.74329E+12,14:50.0,-1,1303.296703,1.912820513,35.45699435
1.74329E+12,14:50.0,-1,1267.399267,1.912820513,35.45699435
1.74329E+12,14:50.0,-1,1235.897436,1.912820513,35.45699435
1.74329E+12,14:50.1,-1,1206.593407,1.912820513,35.45699435
1.74329E+12,14:50.1,-1,1192.673993,1.912820513,35.45699435
1.74329E+12,14:50.1,-1,1194.871795,1.912820513,35.45699435
1.74329E+12,14:50.1,-1,1188.278388,1.912820513,35.45699435
1.74329E+12,14:50.1,-1,1165.567766,1.914285714,35.45699435
1.74329E+12,14:50.1,-1,1151.648352,1.912820513,35.45699435
1.74329E+12,14:50.2,-1,1141.391941,1.912820513,35.45699435
1.74329E+12,14:50.2,-1,1135.531136,1.912820513,35.45699435
1.74329E+12,14:50.2,-1,1139.92674,1.912820513,35.45699435
1.74329E+12,14:50.2,-1,1125.274725,1.912820513,35.45699435
1.74329E+12,14:50.2,-1,1104.029304,1.911355311,35.45699435
1.74329E+12,14:50.3,-1,1090.10989,1.912820513,35.45699435
1.74329E+12,14:50.3,-1,1076.923077,1.911355311,35.45699435
1.74329E+12,14:50.3,-1,1082.051282,1.912820513,35.45699435
1.74329E+12,14:50.3,-1,1144.322344,1.912820513,35.45699435
1.74329E+12,14:50.3,-1,1284.981685,1.911355311,35.45699435
1.74329E+12,14:50.4,-1,1458.608059,1.911355311,35.45699435
1.74329E+12,14:50.4,-1,1605.860806,1.911355311,35.45699435
1.74329E+12,14:50.4,-1,1695.238095,1.911355311,35.45699435
1.74329E+12,14:50.4,-1,1742.857143,1.911355311,35.45699435
1.74329E+12,14:50.4,-1,1762.637363,1.911355311,35.45699435
1.74329E+12,14:50.5,-1,1778.021978,1.911355311,35.45699435
1.74329E+12,14:50.5,-1,1771.428571,1.911355311,35.45699435
1.74329E+12,14:50.5,-1,1739.92674,1.90989011,35.45699435
1.74329E+12,14:50.5,-1,1709.89011,1.911355311,35.45699435
1.74329E+12,14:50.5,-1,1678.388278,1.90989011,35.45699435
1.74329E+12,14:50.6,-1,1647.619048,1.90989011,35.45699435
1.74329E+12,14:50.6,-1,1597.069597,1.90989011,35.45699435
1.74329E+12,14:50.6,-1,1532.600733,1.90989011,35.45699435
1.74329E+12,14:50.6,-1,1470.32967,1.90989011,35.45699435
1.74329E+12,14:50.6,-1,1418.315018,1.90989011,35.45699435
1.74329E+12,14:50.7,-1,1394.139194,1.90989011,35.45699435
1.74329E+12,14:50.7,-1,1387.545788,1.90989011,35.45699435
1.74329E+12,14:50.7,-1,1383.882784,1.90989011,35.45699435
1.74329E+12,14:50.7,-1,1368.498168,1.90989011,35.45699435
1.74329E+12,14:50.7,-1,1348.717949,1.908424908,35.45699435
1.74329E+12,14:50.8,-1,1338.461538,1.908424908,35.45699435
1.74329E+12,14:50.8,-1,1325.274725,1.908424908,35.45699435
1.74329E+12,14:50.8,-1,1319.413919,1.90989011,35.45699435
1.74329E+12,14:50.8,-1,1294.505495,1.908424908,35.45699435
1.74329E+12,14:50.8,-1,1275.457875,1.908424908,35.45699435
1.74329E+12,14:50.9,-1,1264.468864,1.908424908,35.45699435
1.74329E+12,14:50.9,-1,1243.956044,1.908424908,35.45699435
1.74329E+12,14:50.9,-1,1211.721612,1.908424908,35.45699435
1.74329E+12,14:50.9,-1,1188.278388,1.908424908,35.45699435
1.74329E+12,14:50.9,-1,1182.417582,1.908424908,35.45699435
1.74329E+12,14:50.9,-1,1171.428571,1.908424908,35.46699629
1.74329E+12,14:51.0,-1,1161.172161,1.908424908,35.46699629
1.74329E+12,14:51.0,-1,1147.252747,1.908424908,35.46699629
1.74329E+12,14:51.0,-1,1142.124542,1.908424908,35.46699629
1.74329E+12,14:51.0,-1,1153.113553,1.908424908,35.46699629
1.74329E+12,14:51.0,-1,1158.974359,1.908424908,35.46699629
1.74329E+12,14:51.1,-1,1150.18315,1.906959707,35.46699629
1.74329E+12,14:51.1,-1,1119.413919,1.908424908,35.46699629
1.74329E+12,14:51.1,-1,1104.761905,1.906959707,35.46699629
1.74329E+12,14:51.1,-1,1126.007326,1.908424908,35.46699629
1.74329E+12,14:51.1,-1,1217.582418,1.906959707,35.46699629
1.74329E+12,14:51.2,-1,1375.824176,1.906959707,35.46699629
1.74329E+12,14:51.2,-1,1542.124542,1.906959707,35.46699629
1.74329E+12,14:51.2,-1,1676.923077,1.906959707,35.46699629
1.74329E+12,14:51.2,-1,1759.70696,1.906959707,35.46699629
1.74329E+12,14:51.2,-1,1805.860806,1.906959707,35.46699629
1.74329E+12,14:51.3,-1,1821.245421,1.906959707,35.46699629
1.74329E+12,14:51.3,-1,1819.78022,1.905494505,35.46699629
1.74329E+12,14:51.3,-1,1814.652015,1.905494505,35.46699629
1.74329E+12,14:51.3,-1,1794.871795,1.905494505,35.46699629
1.74329E+12,14:51.3,-1,1763.369963,1.905494505,35.46699629
1.74329E+12,14:51.4,-1,1726.007326,1.905494505,35.46699629
1.74329E+12,14:51.4,-1,1679.120879,1.905494505,35.46699629
1.74329E+12,14:51.4,-1,1611.721612,1.904029304,35.46699629
1.74329E+12,14:51.4,-1,1541.391941,1.904029304,35.46699629
1.74329E+12,14:51.4,-1,1495.238095,1.905494505,35.46699629
1.74329E+12,14:51.5,-1,1463.003663,1.904029304,35.46699629
1.74329E+12,14:51.5,-1,1448.351648,1.904029304,35.46699629
1.74329E+12,14:51.5,-1,1435.164835,1.904029304,35.46699629
1.74329E+12,14:51.5,-1,1408.791209,1.904029304,35.46699629
1.74329E+12,14:51.5,-1,1383.882784,1.902564103,35.46699629
1.74329E+12,14:51.6,-1,1372.161172,1.902564103,35.46699629
1.74329E+12,14:51.6,-1,1355.311355,1.902564103,35.46699629
1.74329E+12,14:51.6,-1,1336.996337,1.902564103,35.46699629
1.74329E+12,14:51.6,-1,1335.531136,1.902564103,35.46699629
1.74329E+12,14:51.6,-1,1331.135531,1.902564103,35.46699629
1.74329E+12,14:51.7,-1,1301.098901,1.901098901,35.46699629
1.74329E+12,14:51.7,-1,1269.59707,1.901098901,35.46699629
1.74329E+12,14:51.7,-1,1247.619048,1.901098901,35.46699629
1.74329E+12,14:51.7,-1,1229.304029,1.901098901,35.46699629
1.74329E+12,14:51.7,-1,1202.930403,1.901098901,35.46699629
1.74329E+12,14:51.7,-1,1187.545788,1.901098901,35.46699629
1.74329E+12,14:51.8,-1,1178.754579,1.901098901,35.46699629
1.74329E+12,14:51.8,-1,1184.615385,1.901098901,35.46699629
1.74329E+12,14:51.8,-1,1183.882784,1.901098901,35.46699629
1.74329E+12,14:51.8,-1,1172.893773,1.8996337,35.46699629
1.74329E+12,14:51.8,-1,1167.032967,1.8996337,35.46699629
1.74329E+12,14:51.9,-1,1166.300366,1.8996337,35.46699629
1.74329E+12,14:51.9,-1,1165.567766,1.8996337,35.46699629
1.74329E+12,14:51.9,-1,1157.509158,1.8996337,35.46699629
1.74329E+12,14:51.9,-1,1145.787546,1.8996337,35.46699629
1.74329E+12,14:51.9,-1,1135.531136,1.898168498,35.49700197
1.74329E+12,14:52.0,-1,1179.487179,1.8996337,35.49700197
1.74329E+12,14:52.0,-1,1308.424908,1.8996337,35.49700197
1.74329E+12,14:52.0,-1,1463.736264,1.8996337,35.49700197
1.74329E+12,14:52.0,-1,1601.465201,1.8996337,35.49700197
1.74329E+12,14:52.0,-1,1713.553114,1.8996337,35.49700197
1.74329E+12,14:52.1,-1,1778.021978,1.898168498,35.49700197
1.74329E+12,14:52.1,-1,1813.919414,1.898168498,35.49700197
1.74329E+12,14:52.1,-1,1833.699634,1.898168498,35.49700197
1.74329E+12,14:52.1,-1,1831.501832,1.898168498,35.49700197
1.74329E+12,14:52.1,-1,1812.454212,1.898168498,35.49700197
1.74329E+12,14:52.2,-1,1783.882784,1.896703297,35.49700197
1.74329E+12,14:52.2,-1,1746.520147,1.898168498,35.49700197
1.74329E+12,14:52.2,-1,1709.89011,1.896703297,35.49700197
1.74329E+12,14:52.2,-1,1658.608059,1.896703297,35.49700197
1.74329E+12,14:52.2,-1,1589.010989,1.896703297,35.49700197
1.74329E+12,14:52.3,-1,1526.739927,1.896703297,35.49700197
1.74329E+12,14:52.3,-1,1491.575092,1.896703297,35.49700197
1.74329E+12,14:52.3,-1,1481.318681,1.896703297,35.49700197
1.74329E+12,14:52.3,-1,1469.59707,1.895238095,35.49700197
1.74329E+12,14:52.3,-1,1446.886447,1.895238095,35.49700197
1.74329E+12,14:52.4,-1,1435.164835,1.895238095,35.49700197
1.74329E+12,14:52.4,-1,1416.117216,1.895238095,35.49700197
1.74329E+12,14:52.4,-1,1397.802198,1.895238095,35.49700197
1.74329E+12,14:52.4,-1,1372.893773,1.895238095,35.49700197
1.74329E+12,14:52.4,-1,1350.915751,1.893772894,35.49700197
1.74329E+12,14:52.5,-1,1326.007326,1.893772894,35.49700197
1.74329E+12,14:52.5,-1,1293.772894,1.893772894,35.49700197
1.74329E+12,14:52.5,-1,1282.783883,1.893772894,35.49700197
1.74329E+12,14:52.5,-1,1277.655678,1.893772894,35.49700197
1.74329E+12,14:52.5,-1,1260.805861,1.893772894,35.49700197
1.74329E+12,14:52.5,-1,1221.978022,1.892307692,35.49700197
1.74329E+12,14:52.6,-1,1180.952381,1.892307692,35.49700197
1.74329E+12,14:52.6,-1,1150.18315,1.892307692,35.49700197
1.74329E+12,14:52.6,-1,1147.985348,1.892307692,35.49700197
1.74329E+12,14:52.6,-1,1169.96337,1.892307692,35.49700197
1.74329E+12,14:52.6,-1,1167.765568,1.892307692,35.49700197
1.74329E+12,14:52.7,-1,1160.43956,1.892307692,35.49700197
1.74329E+12,14:52.7,-1,1156.043956,1.892307692,35.49700197
1.74329E+12,14:52.7,-1,1159.70696,1.892307692,35.49700197
1.74329E+12,14:52.7,-1,1168.498168,1.892307692,35.49700197
1.74329E+12,14:52.7,-1,1168.498168,1.890842491,35.49700197
1.74329E+12,14:52.8,-1,1167.765568,1.890842491,35.49700197
1.74329E+12,14:52.8,-1,1199.267399,1.890842491,35.49700197
1.74329E+12,14:52.8,-1,1286.446886,1.890842491,35.49700197
1.74329E+12,14:52.8,-1,1417.582418,1.890842491,35.49700197
1.74329E+12,14:52.8,-1,1551.648352,1.892307692,35.49700197
1.74329E+12,14:52.9,-1,1658.608059,1.893772894,35.49700197
1.74329E+12,14:52.9,-1,1736.263736,1.893772894,35.49700197
1.74329E+12,14:52.9,-1,1767.765568,1.893772894,35.49700197
1.74329E+12,14:52.9,-1,1775.824176,1.893772894,35.49700197
1.74329E+12,14:52.9,-1,1769.230769,1.892307692,35.51700564
1.74329E+12,14:53.0,-1,1741.391941,1.892307692,35.51700564
1.74329E+12,14:53.0,-1,1723.809524,1.893772894,35.51700564
1.74329E+12,14:53.0,-1,1709.157509,1.892307692,35.51700564
1.74329E+12,14:53.0,-1,1682.051282,1.892307692,35.51700564
1.74329E+12,14:53.0,-1,1646.886447,1.893772894,35.51700564
1.74329E+12,14:53.1,-1,1600,1.892307692,35.51700564
1.74329E+12,14:53.1,-1,1535.531136,1.892307692,35.51700564
1.74329E+12,14:53.1,-1,1476.190476,1.892307692,35.51700564
1.74329E+12,14:53.1,-1,1444.688645,1.892307692,35.51700564
1.74329E+12,14:53.1,-1,1419.047619,1.892307692,35.51700564
1.74329E+12,14:53.2,-1,1411.721612,1.890842491,35.51700564
1.74329E+12,14:53.2,-1,1411.721612,1.890842491,35.51700564
1.74329E+12,14:53.2,-1,1386.813187,1.892307692,35.51700564
1.74329E+12,14:53.2,-1,1368.498168,1.889377289,35.51700564
1.74329E+12,14:53.2,-1,1353.846154,1.889377289,35.51700564
1.74329E+12,14:53.2,-1,1340.659341,1.889377289,35.51700564
1.74329E+12,14:53.3,-1,1330.40293,1.889377289,35.51700564
1.74329E+12,14:53.3,-1,1315.750916,1.889377289,35.51700564
1.74329E+12,14:53.3,-1,1290.10989,1.889377289,35.51700564
1.74329E+12,14:53.3,-1,1261.538462,1.889377289,35.51700564
1.74329E+12,14:53.3,-1,1233.699634,1.887912088,35.51700564
1.74329E+12,14:53.4,-1,1201.465201,1.889377289,35.51700564
1.74329E+12,14:53.4,-1,1179.487179,1.889377289,35.51700564
1.74329E+12,14:53.4,-1,1185.347985,1.887912088,35.51700564
1.74329E+12,14:53.4,-1,1190.47619,1.887912088,35.51700564
1.74329E+12,14:53.4,-1,1186.813187,1.887912088,35.51700564
1.74329E+12,14:53.5,-1,1180.21978,1.887912088,35.51700564
1.74329E+12,14:53.5,-1,1179.487179,1.887912088,35.51700564
1.74329E+12,14:53.5,-1,1178.754579,1.887912088,35.51700564
1.74329E+12,14:53.5,-1,1176.556777,1.887912088,35.51700564
1.74329E+12,14:53.5,-1,1163.369963,1.887912088,35.51700564
1.74329E+12,14:53.6,-1,1147.985348,1.887912088,35.51700564
1.74329E+12,14:53.6,-1,1138.461538,1.887912088,35.51700564
1.74329E+12,14:53.6,-1,1167.765568,1.887912088,35.51700564
1.74329E+12,14:53.6,-1,1259.340659,1.887912088,35.51700564
1.74329E+12,14:53.6,-1,1389.74359,1.887912088,35.51700564
1.74329E+12,14:53.7,-1,1515.018315,1.887912088,35.51700564
1.74329E+12,14:53.7,-1,1594.139194,1.887912088,35.51700564
1.74329E+12,14:53.7,-1,1641.758242,1.887912088,35.51700564
1.74329E+12,14:53.7,-1,1683.516484,1.887912088,35.51700564
1.74329E+12,14:53.7,-1,1705.494505,1.887912088,35.51700564
1.74329E+12,14:53.8,-1,1696.703297,1.886446886,35.51700564
1.74329E+12,14:53.8,-1,1675.457875,1.887912088,35.51700564
1.74329E+12,14:53.8,-1,1648.351648,1.886446886,35.51700564
1.74329E+12,14:53.8,-1,1635.164835,1.887912088,35.51700564
1.74329E+12,14:53.8,-1,1618.315018,1.886446886,35.51700564
1.74329E+12,14:53.9,-1,1591.941392,1.886446886,35.51700564
1.74329E+12,14:53.9,-1,1550.915751,1.887912088,35.51700564
1.74329E+12,14:53.9,-1,1506.227106,1.886446886,35.51700564
1.74329E+12,14:53.9,-1,1468.131868,1.886446886,35.51700564
1.74329E+12,14:53.9,-1,1428.571429,1.886446886,35.53200833
1.74329E+12,14:54.0,-1,1395.604396,1.886446886,35.53200833
1.74329E+12,14:54.0,-1,1381.684982,1.886446886,35.53200833
1.74329E+12,14:54.0,-1,1375.091575,1.886446886,35.53200833
1.74329E+12,14:54.0,-1,1376.556777,1.886446886,35.53200833
1.74329E+12,14:54.0,-1,1374.358974,1.884981685,35.53200833
1.74329E+12,14:54.0,-1,1359.70696,1.884981685,35.53200833
1.74329E+12,14:54.1,-1,1325.274725,1.886446886,35.53200833
1.74329E+12,14:54.1,-1,1287.179487,1.886446886,35.53200833
1.74329E+12,14:54.1,-1,1260.805861,1.886446886,35.53200833
1.74329E+12,14:54.1,-1,1239.56044,1.884981685,35.53200833
1.74329E+12,14:54.1,-1,1221.978022,1.886446886,35.53200833
1.74329E+12,14:54.2,-1,1217.582418,1.884981685,35.53200833
1.74329E+12,14:54.2,-1,1216.849817,1.886446886,35.53200833
1.74329E+12,14:54.2,-1,1211.721612,1.886446886,35.53200833
1.74329E+12,14:54.2,-1,1213.919414,1.884981685,35.53200833
1.74329E+12,14:54.2,-1,1210.25641,1.886446886,35.53200833
1.74329E+12,14:54.3,-1,1194.871795,1.884981685,35.53200833
1.74329E+12,14:54.3,-1,1181.684982,1.884981685,35.53200833
1.74329E+12,14:54.3,-1,1170.695971,1.884981685,35.53200833
1.74329E+12,14:54.3,-1,1165.567766,1.884981685,35.53200833
1.74329E+12,14:54.3,-1,1166.300366,1.884981685,35.53200833
1.74329E+12,14:54.4,-1,1218.315018,1.884981685,35.53200833
1.74329E+12,14:54.4,-1,1322.344322,1.886446886,35.53200833
1.74329E+12,14:54.4,-1,1431.501832,1.886446886,35.53200833
1.74329E+12,14:54.4,-1,1529.67033,1.884981685,35.53200833
1.74329E+12,14:54.4,-1,1608.058608,1.886446886,35.53200833
1.74329E+12,14:54.5,-1,1657.875458,1.886446886,35.53200833
1.74329E+12,14:54.5,-1,1671.794872,1.886446886,35.53200833
1.74329E+12,14:54.5,-1,1671.062271,1.886446886,35.53200833
1.74329E+12,14:54.5,-1,1669.59707,1.886446886,35.53200833
1.74329E+12,14:54.5,-1,1654.212454,1.886446886,35.53200833
1.74329E+12,14:54.6,-1,1652.014652,1.886446886,35.53200833
1.74329E+12,14:54.6,-1,1663.003663,1.886446886,35.53200833
1.74329E+12,14:54.6,-1,1641.758242,1.886446886,35.53200833
1.74329E+12,14:54.6,-1,1596.336996,1.886446886,35.53200833
1.74329E+12,14:54.6,-1,1542.857143,1.886446886,35.53200833
1.74329E+12,14:54.7,-1,1486.446886,1.886446886,35.53200833
1.74329E+12,14:54.7,-1,1440.29304,1.886446886,35.53200833
1.74329E+12,14:54.7,-1,1400,1.886446886,35.53200833
1.74329E+12,14:54.7,-1,1376.556777,1.886446886,35.53200833
1.74329E+12,14:54.7,-1,1375.091575,1.887912088,35.53200833
1.74329E+12,14:54.8,-1,1375.091575,1.887912088,35.53200833
1.74329E+12,14:54.8,-1,1368.498168,1.887912088,35.53200833
1.74329E+12,14:54.8,-1,1362.637363,1.887912088,35.53200833
1.74329E+12,14:54.8,-1,1351.648352,1.887912088,35.53200833
1.74329E+12,14:54.8,-1,1329.67033,1.887912088,35.53200833
1.74329E+12,14:54.8,-1,1304.029304,1.887912088,35.53200833
1.74329E+12,14:54.9,-1,1278.388278,1.887912088,35.53200833
1.74329E+12,14:54.9,-1,1254.945055,1.887912088,35.53200833
1.74329E+12,14:54.9,-1,1246.886447,1.887912088,35.53200833
1.74329E+12,14:54.9,-1,1241.758242,1.889377289,35.5420101
1.74329E+12,14:54.9,-1,1234.432234,1.889377289,35.5420101
1.74329E+12,14:55.0,-1,1231.501832,1.889377289,35.5420101
1.74329E+12,14:55.0,-1,1217.582418,1.889377289,35.5420101
1.74329E+12,14:55.0,-1,1200.732601,1.890842491,35.5420101
1.74329E+12,14:55.0,-1,1196.336996,1.890842491,35.5420101
1.74329E+12,14:55.0,-1,1191.208791,1.890842491,35.5420101
1.74329E+12,14:55.1,-1,1179.487179,1.890842491,35.5420101
1.74329E+12,14:55.1,-1,1164.102564,1.890842491,35.5420101
1.74329E+12,14:55.1,-1,1150.915751,1.890842491,35.5420101
1.74329E+12,14:55.1,-1,1161.904762,1.890842491,35.5420101
1.74329E+12,14:55.1,-1,1221.978022,1.890842491,35.5420101
1.74329E+12,14:55.2,-1,1324.542125,1.890842491,35.5420101
1.74329E+12,14:55.2,-1,1437.362637,1.890842491,35.5420101
1.74329E+12,14:55.2,77,1547.985348,1.890842491,35.5420101
1.74329E+12,14:55.2,77,1637.362637,1.890842491,35.5420101
1.74329E+12,14:55.2,77,1685.714286,1.892307692,35.5420101
1.74329E+12,14:55.3,77,1710.622711,1.890842491,35.5420101
1.74329E+12,14:55.3,77,1723.076923,1.890842491,35.5420101
1.74329E+12,14:55.3,77,1726.007326,1.890842491,35.5420101
1.74329E+12,14:55.3,77,1717.948718,1.890842491,35.5420101
1.74329E+12,14:55.3,77,1708.424908,1.890842491,35.5420101
1.74329E+12,14:55.4,77,1694.505495,1.890842491,35.5420101
1.74329E+12,14:55.4,77,1670.32967,1.892307692,35.5420101
1.74329E+12,14:55.4,77,1627.106227,1.892307692,35.5420101
1.74329E+12,14:55.4,77,1572.893773,1.890842491,35.5420101
1.74329E+12,14:55.4,77,1525.274725,1.890842491,35.5420101
1.74329E+12,14:55.5,77,1493.040293,1.890842491,35.5420101
1.74329E+12,14:55.5,77,1472.527473,1.890842491,35.5420101
1.74329E+12,14:55.5,77,1452.014652,1.892307692,35.5420101
1.74329E+12,14:55.5,77,1435.897436,1.890842491,35.5420101
1.74329E+12,14:55.5,77,1421.245421,1.890842491,35.5420101
1.74329E+12,14:55.6,77,1406.593407,1.890842491,35.5420101
1.74329E+12,14:55.6,77,1378.021978,1.890842491,35.5420101
1.74329E+12,14:55.6,77,1332.600733,1.890842491,35.5420101
1.74329E+12,14:55.6,77,1296.703297,1.892307692,35.5420101
1.74329E+12,14:55.6,77,1273.992674,1.890842491,35.5420101
1.74329E+12,14:55.6,77,1265.934066,1.890842491,35.5420101
1.74329E+12,14:55.7,77,1252.014652,1.890842491,35.5420101
1.74329E+12,14:55.7,77,1238.827839,1.890842491,35.5420101
1.74329E+12,14:55.7,77,1235.897436,1.890842491,35.5420101
1.74329E+12,14:55.7,77,1238.095238,1.890842491,35.5420101
1.74329E+12,14:55.7,77,1240.29304,1.890842491,35.5420101
1.74329E+12,14:55.8,77,1235.897436,1.890842491,35.5420101
1.74329E+12,14:55.8,77,1234.432234,1.890842491,35.5420101
1.74329E+12,14:55.8,77,1226.373626,1.890842491,35.5420101
1.74329E+12,14:55.8,77,1208.791209,1.890842491,35.5420101
1.74329E+12,14:55.8,77,1202.197802,1.889377289,35.5420101
1.74329E+12,14:55.9,77,1193.406593,1.890842491,35.5420101
1.74329E+12,14:55.9,77,1182.417582,1.889377289,35.5420101
1.74329E+12,14:55.9,77,1181.684982,1.889377289,35.5420101
1.74329E+12,14:55.9,77,1217.582418,1.889377289,35.56201356
1.74329E+12,14:55.9,77,1299.6337,1.889377289,35.56201356
1.74329E+12,14:56.0,77,1402.930403,1.889377289,35.56201356
1.74329E+12,14:56.0,77,1495.970696,1.889377289,35.56201356
1.74329E+12,14:56.0,77,1581.684982,1.889377289,35.56201356
1.74329E+12,14:56.0,73,1652.747253,1.887912088,35.56201356
1.74329E+12,14:56.0,73,1704.761905,1.887912088,35.56201356
1.74329E+12,14:56.1,73,1734.065934,1.887912088,35.56201356
1.74329E+12,14:56.1,73,1758.974359,1.887912088,35.56201356
1.74329E+12,14:56.1,73,1772.161172,1.887912088,35.56201356
1.74329E+12,14:56.1,73,1764.835165,1.887912088,35.56201356
1.74329E+12,14:56.1,73,1737.728938,1.887912088,35.56201356
1.74329E+12,14:56.2,73,1692.307692,1.887912088,35.56201356
1.74329E+12,14:56.2,73,1639.56044,1.887912088,35.56201356
1.74329E+12,14:56.2,73,1597.802198,1.887912088,35.56201356
1.74329E+12,14:56.2,73,1547.985348,1.886446886,35.56201356
1.74329E+12,14:56.2,73,1506.227106,1.886446886,35.56201356
1.74329E+12,14:56.3,73,1484.249084,1.886446886,35.56201356
1.74329E+12,14:56.3,73,1473.992674,1.886446886,35.56201356
1.74329E+12,14:56.3,73,1455.677656,1.886446886,35.56201356
1.74329E+12,14:56.3,73,1429.304029,1.884981685,35.56201356
1.74329E+12,14:56.3,73,1401.465201,1.884981685,35.56201356
1.74329E+12,14:56.4,73,1383.882784,1.884981685,35.56201356
1.74329E+12,14:56.4,73,1367.032967,1.884981685,35.56201356
1.74329E+12,14:56.4,73,1342.124542,1.884981685,35.56201356
1.74329E+12,14:56.4,73,1317.216117,1.883516484,35.56201356
1.74329E+12,14:56.4,73,1294.505495,1.883516484,35.56201356
1.74329E+12,14:56.4,73,1268.131868,1.883516484,35.56201356
1.74329E+12,14:56.5,73,1262.271062,1.883516484,35.56201356
1.74329E+12,14:56.5,73,1253.479853,1.883516484,35.56201356
1.74329E+12,14:56.5,73,1243.223443,1.882051282,35.56201356
1.74329E+12,14:56.5,73,1229.304029,1.882051282,35.56201356
1.74329E+12,14:56.5,73,1205.128205,1.882051282,35.56201356
1.74329E+12,14:56.6,73,1180.952381,1.882051282,35.56201356
1.74329E+12,14:56.6,73,1160.43956,1.882051282,35.56201356
1.74329E+12,14:56.6,73,1150.915751,1.880586081,35.56201356
1.74329E+12,14:56.6,73,1144.322344,1.882051282,35.56201356
1.74329E+12,14:56.6,73,1138.461538,1.882051282,35.56201356
1.74329E+12,14:56.7,73,1138.461538,1.880586081,35.56201356
1.74329E+12,14:56.7,73,1145.054945,1.880586081,35.56201356
1.74329E+12,14:56.7,73,1154.578755,1.880586081,35.56201356
1.74329E+12,14:56.7,73,1162.637363,1.880586081,35.56201356
1.74329E+12,14:56.7,73,1167.032967,1.880586081,35.56201356
1.74329E+12,14:56.8,73,1200.732601,1.880586081,35.56201356
1.74329E+12,14:56.8,73,1259.340659,1.880586081,35.56201356
1.74329E+12,14:56.8,73,1356.043956,1.879120879,35.56201356
1.74329E+12,14:56.8,73,1445.421245,1.879120879,35.56201356
1.74329E+12,14:56.8,73,1523.076923,1.879120879,35.56201356
1.74329E+12,14:56.9,73,1586.080586,1.879120879,35.56201356
1.74329E+12,14:56.9,73,1639.56044,1.877655678,35.56201356
1.74329E+12,14:56.9,73,1671.794872,1.877655678,35.56201356
1.74329E+12,14:56.9,73,1684.249084,1.877655678,35.57701609
1.74329E+12,14:56.9,73,1689.377289,1.877655678,35.57701609
1.74329E+12,14:57.0,73,1689.377289,1.876190476,35.57701609
1.74329E+12,14:57.0,73,1671.062271,1.876190476,35.57701609
1.74329E+12,14:57.0,73,1657.875458,1.876190476,35.57701609
1.74329E+12,14:57.0,73,1635.164835,1.876190476,35.57701609
1.74329E+12,14:57.0,73,1594.871795,1.874725275,35.57701609
1.74329E+12,14:57.1,73,1553.113553,1.874725275,35.57701609
1.74329E+12,14:57.1,73,1511.355311,1.874725275,35.57701609
1.74329E+12,14:57.1,73,1486.446886,1.874725275,35.57701609
1.74329E+12,14:57.1,73,1459.340659,1.874725275,35.57701609
1.74329E+12,14:57.1,73,1432.234432,1.874725275,35.57701609
1.74329E+12,14:57.2,73,1416.117216,1.873260073,35.57701609
1.74329E+12,14:57.2,73,1391.941392,1.873260073,35.57701609
1.74329E+12,14:57.2,73,1375.091575,1.873260073,35.57701609
1.74329E+12,14:57.2,73,1345.054945,1.871794872,35.57701609
1.74329E+12,14:57.2,73,1315.750916,1.871794872,35.57701609
1.74329E+12,14:57.2,73,1313.553114,1.871794872,35.57701609
1.74329E+12,14:57.3,73,1305.494505,1.871794872,35.57701609
1.74329E+12,14:57.3,73,1287.179487,1.87032967,35.57701609
1.74329E+12,14:57.3,73,1268.864469,1.87032967,35.57701609
1.74329E+12,14:57.3,73,1246.153846,1.87032967,35.57701609
1.74329E+12,14:57.3,73,1218.315018,1.87032967,35.57701609
1.74329E+12,14:57.4,73,1186.813187,1.868864469,35.57701609
1.74329E+12,14:57.4,73,1167.032967,1.87032967,35.57701609
1.74329E+12,14:57.4,73,1157.509158,1.868864469,35.57701609
1.74329E+12,14:57.4,73,1162.637363,1.868864469,35.57701609
1.74329E+12,14:57.4,73,1164.835165,1.868864469,35.57701609
1.74329E+12,14:57.5,73,1160.43956,1.868864469,35.57701609
1.74329E+12,14:57.5,73,1162.637363,1.867399267,35.57701609
1.74329E+12,14:57.5,73,1156.043956,1.867399267,35.57701609
1.74329E+12,14:57.5,73,1145.054945,1.867399267,35.57701609
1.74329E+12,14:57.5,73,1135.531136,1.867399267,35.57701609
1.74329E+12,14:57.6,73,1117.216117,1.865934066,35.57701609
1.74329E+12,14:57.6,73,1113.553114,1.865934066,35.57701609
1.74329E+12,14:57.6,73,1150.915751,1.865934066,35.57701609
1.74329E+12,14:57.6,73,1210.989011,1.865934066,35.57701609
1.74329E+12,14:57.6,73,1286.446886,1.865934066,35.57701609
1.74329E+12,14:57.7,73,1369.230769,1.864468864,35.57701609
1.74329E+12,14:57.7,72,1441.758242,1.864468864,35.57701609
1.74329E+12,14:57.7,72,1495.970696,1.864468864,35.57701609
1.74329E+12,14:57.7,72,1545.787546,1.863003663,35.57701609
1.74329E+12,14:57.7,72,1580.952381,1.863003663,35.57701609
1.74329E+12,14:57.8,72,1593.406593,1.863003663,35.57701609
1.74329E+12,14:57.8,72,1599.267399,1.861538462,35.57701609
1.74329E+12,14:57.8,72,1608.791209,1.861538462,35.57701609
1.74329E+12,14:57.8,72,1610.25641,1.861538462,35.57701609
1.74329E+12,14:57.8,72,1591.208791,1.861538462,35.57701609
1.74329E+12,14:57.9,72,1556.776557,1.861538462,35.57701609
1.74329E+12,14:57.9,72,1505.494505,1.86007326,35.57701609
1.74329E+12,14:57.9,72,1461.538462,1.86007326,35.57701609
1.74329E+12,14:57.9,72,1436.630037,1.861538462,35.607021
1.74329E+12,14:57.9,72,1405.860806,1.86007326,35.607021
1.74329E+12,14:57.9,72,1396.336996,1.86007326,35.607021
1.74329E+12,14:58.0,72,1388.278388,1.858608059,35.607021
1.74329E+12,14:58.0,72,1375.091575,1.858608059,35.607021
1.74329E+12,14:58.0,72,1361.172161,1.858608059,35.607021
1.74329E+12,14:58.0,72,1342.124542,1.858608059,35.607021
1.74329E+12,14:58.0,72,1325.274725,1.858608059,35.607021
1.74329E+12,14:58.1,72,1304.761905,1.858608059,35.607021
1.74329E+12,14:58.1,72,1276.923077,1.858608059,35.607021
1.74329E+12,14:58.1,72,1251.282051,1.858608059,35.607021
1.74329E+12,14:58.1,72,1232.967033,1.857142857,35.607021
1.74329E+12,14:58.1,72,1222.710623,1.857142857,35.607021
1.74329E+12,14:58.2,72,1207.326007,1.857142857,35.607021
1.74329E+12,14:58.2,72,1191.941392,1.857142857,35.607021
1.74329E+12,14:58.2,72,1184.615385,1.857142857,35.607021
1.74329E+12,14:58.2,72,1174.358974,1.857142857,35.607021
1.74329E+12,14:58.2,72,1183.150183,1.857142857,35.607021
1.74329E+12,14:58.3,72,1193.406593,1.857142857,35.607021
1.74329E+12,14:58.3,72,1180.952381,1.855677656,35.607021
1.74329E+12,14:58.3,72,1164.835165,1.855677656,35.607021
1.74329E+12,14:58.3,72,1165.567766,1.855677656,35.607021
1.74329E+12,14:58.3,72,1172.893773,1.855677656,35.607021
1.74329E+12,14:58.4,72,1178.754579,1.855677656,35.607021
1.74329E+12,14:58.4,72,1201.465201,1.855677656,35.607021
1.74329E+12,14:58.4,72,1240.29304,1.855677656,35.607021
1.74329E+12,14:58.4,72,1304.029304,1.855677656,35.607021
1.74329E+12,14:58.4,73,1382.417582,1.855677656,35.607021
1.74329E+12,14:58.5,73,1460.07326,1.855677656,35.607021
1.74329E+12,14:58.5,73,1510.622711,1.854212454,35.607021
1.74329E+12,14:58.5,73,1526.007326,1.854212454,35.607021
1.74329E+12,14:58.5,73,1548.717949,1.854212454,35.607021
1.74329E+12,14:58.5,73,1558.974359,1.854212454,35.607021
1.74329E+12,14:58.6,73,1555.311355,1.854212454,35.607021
1.74329E+12,14:58.6,73,1558.974359,1.854212454,35.607021
1.74329E+12,14:58.6,73,1559.70696,1.854212454,35.607021
1.74329E+12,14:58.6,73,1546.520147,1.854212454,35.607021
1.74329E+12,14:58.6,73,1510.622711,1.852747253,35.607021
1.74329E+12,14:58.7,73,1460.805861,1.852747253,35.607021
1.74329E+12,14:58.7,73,1426.373626,1.852747253,35.607021
1.74329E+12,14:58.7,73,1403.663004,1.852747253,35.607021
1.74329E+12,14:58.7,73,1392.673993,1.854212454,35.607021
1.74329E+12,14:58.7,73,1380.21978,1.855677656,35.607021
1.74329E+12,14:58.7,73,1375.824176,1.854212454,35.607021
1.74329E+12,14:58.8,73,1365.567766,1.854212454,35.607021
1.74329E+12,14:58.8,73,1335.531136,1.854212454,35.607021
1.74329E+12,14:58.8,73,1306.959707,1.854212454,35.607021
1.74329E+12,14:58.8,73,1295.238095,1.854212454,35.607021
1.74329E+12,14:58.8,73,1292.307692,1.854212454,35.607021
1.74329E+12,14:58.9,73,1289.377289,1.854212454,35.607021
1.74329E+12,14:58.9,73,1276.923077,1.854212454,35.607021
1.74329E+12,14:58.9,73,1258.608059,1.854212454,35.6120218
1.74329E+12,14:58.9,73,1232.967033,1.854212454,35.6120218
1.74329E+12,14:58.9,73,1216.849817,1.854212454,35.6120218
1.74329E+12,14:59.0,73,1210.989011,1.852747253,35.6120218
1.74329E+12,14:59.0,73,1190.47619,1.852747253,35.6120218
1.74329E+12,14:59.0,73,1171.428571,1.852747253,35.6120218
1.74329E+12,14:59.0,73,1162.637363,1.852747253,35.6120218
1.74329E+12,14:59.0,73,1153.846154,1.852747253,35.6120218
1.74329E+12,14:59.1,73,1138.461538,1.852747253,35.6120218
1.74329E+12,14:59.1,73,1107.692308,1.852747253,35.6120218
1.74329E+12,14:59.1,73,1090.10989,1.852747253,35.6120218
1.74329E+12,14:59.1,73,1098.168498,1.851282051,35.6120218
1.74329E+12,14:59.1,73,1129.67033,1.851282051,35.6120218
1.74329E+12,14:59.2,73,1172.161172,1.851282051,35.6120218
1.74329E+12,14:59.2,73,1232.967033,1.851282051,35.6120218
1.74329E+12,14:59.2,73,1311.355311,1.851282051,35.6120218
1.74329E+12,14:59.2,79,1400.732601,1.851282051,35.6120218
1.74329E+12,14:59.2,79,1478.388278,1.851282051,35.6120218
1.74329E+12,14:59.3,79,1542.857143,1.851282051,35.6120218
1.74329E+12,14:59.3,79,1584.615385,1.851282051,35.6120218
1.74329E+12,14:59.3,79,1616.849817,1.851282051,35.6120218
1.74329E+12,14:59.3,79,1637.362637,1.84981685,35.6120218
1.74329E+12,14:59.3,79,1652.747253,1.84981685,35.6120218
1.74329E+12,14:59.4,79,1659.340659,1.84981685,35.6120218
1.74329E+12,14:59.4,79,1651.282051,1.851282051,35.6120218
1.74329E+12,14:59.4,79,1637.362637,1.84981685,35.6120218
1.74329E+12,14:59.4,79,1619.78022,1.84981685,35.6120218
1.74329E+12,14:59.4,79,1589.010989,1.848351648,35.6120218
1.74329E+12,14:59.5,79,1548.717949,1.84981685,35.6120218
1.74329E+12,14:59.5,79,1509.157509,1.848351648,35.6120218
1.74329E+12,14:59.5,79,1475.457875,1.848351648,35.6120218
1.74329E+12,14:59.5,79,1449.81685,1.848351648,35.6120218
1.74329E+12,14:59.5,79,1424.908425,1.848351648,35.6120218
1.74329E+12,14:59.5,79,1412.454212,1.848351648,35.6120218
1.74329E+12,14:59.6,79,1394.871795,1.848351648,35.6120218
1.74329E+12,14:59.6,79,1377.289377,1.848351648,35.6120218
1.74329E+12,14:59.6,79,1339.92674,1.848351648,35.6120218
1.74329E+12,14:59.6,79,1313.553114,1.848351648,35.6120218
1.74329E+12,14:59.6,79,1304.761905,1.846886447,35.6120218
1.74329E+12,14:59.7,79,1297.435897,1.848351648,35.6120218
1.74329E+12,14:59.7,79,1283.516484,1.846886447,35.6120218
1.74329E+12,14:59.7,79,1265.934066,1.846886447,35.6120218
1.74329E+12,14:59.7,79,1244.688645,1.846886447,35.6120218
1.74329E+12,14:59.7,79,1228.571429,1.846886447,35.6120218
1.74329E+12,14:59.8,79,1221.245421,1.846886447,35.6120218
1.74329E+12,14:59.8,79,1210.25641,1.846886447,35.6120218
1.74329E+12,14:59.8,79,1203.663004,1.846886447,35.6120218
1.74329E+12,14:59.8,79,1200,1.845421245,35.6120218
1.74329E+12,14:59.8,79,1197.069597,1.845421245,35.6120218
1.74329E+12,14:59.9,79,1192.673993,1.845421245,35.6120218
1.74329E+12,14:59.9,79,1185.347985,1.845421245,35.6120218
1.74329E+12,14:59.9,79,1164.102564,1.845421245,35.63702571
1.74329E+12,14:59.9,79,1152.380952,1.845421245,35.63702571
1.74329E+12,14:59.9,79,1150.915751,1.845421245,35.63702571
1.74329E+12,15:00.0,79,1145.787546,1.845421245,35.63702571
1.74329E+12,15:00.0,79,1178.754579,1.845421245,35.63702571
1.74329E+12,15:00.0,77,1246.153846,1.843956044,35.63702571
1.74329E+12,15:00.0,77,1332.600733,1.843956044,35.63702571
1.74329E+12,15:00.0,77,1443.223443,1.843956044,35.63702571
1.74329E+12,15:00.1,77,1547.985348,1.842490842,35.63702571
1.74329E+12,15:00.1,77,1628.571429,1.842490842,35.63702571
1.74329E+12,15:00.1,77,1690.842491,1.842490842,35.63702571
1.74329E+12,15:00.1,77,1730.40293,1.842490842,35.63702571
1.74329E+12,15:00.1,77,1739.92674,1.841025641,35.63702571
1.74329E+12,15:00.2,77,1745.054945,1.841025641,35.63702571
1.74329E+12,15:00.2,77,1742.857143,1.841025641,35.63702571
1.74329E+12,15:00.2,77,1736.996337,1.841025641,35.63702571
1.74329E+12,15:00.2,77,1724.542125,1.841025641,35.63702571
1.74329E+12,15:00.2,77,1695.970696,1.83956044,35.63702571
1.74329E+12,15:00.3,77,1653.479853,1.841025641,35.63702571
1.74329E+12,15:00.3,77,1606.593407,1.83956044,35.63702571
1.74329E+12,15:00.3,77,1567.765568,1.83956044,35.63702571
1.74329E+12,15:00.3,77,1539.92674,1.83956044,35.63702571
1.74329E+12,15:00.3,77,1512.820513,1.83956044,35.63702571
1.74329E+12,15:00.3,77,1490.842491,1.83956044,35.63702571
1.74329E+12,15:00.4,77,1459.340659,1.838095238,35.63702571
1.74329E+12,15:00.4,77,1409.52381,1.838095238,35.63702571
1.74329E+12,15:00.4,77,1370.695971,1.838095238,35.63702571
1.74329E+12,15:00.4,77,1350.915751,1.838095238,35.63702571
1.74329E+12,15:00.4,77,1331.868132,1.836630037,35.63702571
1.74329E+12,15:00.5,77,1301.831502,1.836630037,35.63702571
1.74329E+12,15:00.5,77,1271.062271,1.836630037,35.63702571
1.74329E+12,15:00.5,77,1253.479853,1.836630037,35.63702571
1.74329E+12,15:00.5,77,1256.410256,1.836630037,35.63702571
1.74329E+12,15:00.5,77,1260.805861,1.835164835,35.63702571
1.74329E+12,15:00.6,77,1268.864469,1.836630037,35.63702571
1.74329E+12,15:00.6,77,1265.201465,1.835164835,35.63702571
1.74329E+12,15:00.6,77,1243.956044,1.835164835,35.63702571
1.74329E+12,15:00.6,77,1234.432234,1.835164835,35.63702571
1.74329E+12,15:00.6,77,1221.245421,1.835164835,35.63702571
1.74329E+12,15:00.7,77,1208.058608,1.835164835,35.63702571
1.74329E+12,15:00.7,77,1192.673993,1.835164835,35.63702571
1.74329E+12,15:00.7,77,1175.824176,1.835164835,35.63702571
1.74329E+12,15:00.7,77,1167.765568,1.835164835,35.63702571
1.74329E+12,15:00.7,77,1167.765568,1.835164835,35.63702571
1.74329E+12,15:00.8,77,1164.102564,1.835164835,35.63702571
1.74329E+12,15:00.8,77,1171.428571,1.833699634,35.63702571
1.74329E+12,15:00.8,77,1198.534799,1.833699634,35.63702571
1.74329E+12,15:00.8,77,1267.399267,1.833699634,35.63702571
1.74329E+12,15:00.8,77,1375.091575,1.833699634,35.63702571
1.74329E+12,15:00.9,77,1497.435897,1.833699634,35.63702571
1.74329E+12,15:00.9,77,1594.871795,1.833699634,35.63702571
1.74329E+12,15:00.9,77,1655.677656,1.832234432,35.65202798
1.74329E+12,15:00.9,77,1701.098901,1.832234432,35.65202798
1.74329E+12,15:00.9,77,1739.92674,1.832234432,35.65202798
1.74329E+12,15:01.0,77,1761.172161,1.832234432,35.65202798
1.74329E+12,15:01.0,77,1764.102564,1.830769231,35.65202798
1.74329E+12,15:01.0,77,1745.054945,1.830769231,35.65202798
1.74329E+12,15:01.0,77,1724.542125,1.830769231,35.65202798
1.74329E+12,15:01.0,77,1708.424908,1.830769231,35.65202798
1.74329E+12,15:01.1,77,1670.32967,1.830769231,35.65202798
1.74329E+12,15:01.1,77,1610.989011,1.829304029,35.65202798
1.74329E+12,15:01.1,77,1553.846154,1.829304029,35.65202798
1.74329E+12,15:01.1,77,1507.692308,1.829304029,35.65202798
1.74329E+12,15:01.1,77,1469.59707,1.829304029,35.65202798
1.74329E+12,15:01.1,77,1452.747253,1.829304029,35.65202798
1.74329E+12,15:01.2,77,1441.025641,1.829304029,35.65202798
1.74329E+12,15:01.2,77,1421.978022,1.829304029,35.65202798
1.74329E+12,15:01.2,77,1389.010989,1.829304029,35.65202798
1.74329E+12,15:01.2,77,1364.835165,1.829304029,35.65202798
1.74329E+12,15:01.2,77,1350.915751,1.827838828,35.65202798
1.74329E+12,15:01.3,77,1342.857143,1.829304029,35.65202798
1.74329E+12,15:01.3,77,1322.344322,1.827838828,35.65202798
1.74329E+12,15:01.3,77,1289.377289,1.827838828,35.65202798
1.74329E+12,15:01.3,77,1249.81685,1.827838828,35.65202798
1.74329E+12,15:01.3,77,1224.175824,1.827838828,35.65202798
1.74329E+12,15:01.4,77,1224.175824,1.827838828,35.65202798
1.74329E+12,15:01.4,77,1221.245421,1.827838828,35.65202798
1.74329E+12,15:01.4,77,1203.663004,1.827838828,35.65202798
1.74329E+12,15:01.4,77,1199.267399,1.827838828,35.65202798
1.74329E+12,15:01.4,77,1198.534799,1.826373626,35.65202798
1.74329E+12,15:01.5,77,1190.47619,1.827838828,35.65202798
1.74329E+12,15:01.5,77,1166.300366,1.826373626,35.65202798
1.74329E+12,15:01.5,77,1161.904762,1.826373626,35.65202798
1.74329E+12,15:01.5,77,1172.161172,1.826373626,35.65202798
1.74329E+12,15:01.5,77,1178.021978,1.826373626,35.65202798
1.74329E+12,15:01.6,77,1172.161172,1.826373626,35.65202798
1.74329E+12,15:01.6,77,1147.252747,1.826373626,35.65202798
1.74329E+12,15:01.6,77,1142.857143,1.826373626,35.65202798
1.74329E+12,15:01.6,77,1177.289377,1.826373626,35.65202798
1.74329E+12,15:01.6,77,1252.747253,1.826373626,35.65202798
1.74329E+12,15:01.7,77,1361.904762,1.826373626,35.65202798
1.74329E+12,15:01.7,77,1474.725275,1.824908425,35.65202798
1.74329E+12,15:01.7,70,1578.021978,1.824908425,35.65202798
1.74329E+12,15:01.7,70,1665.201465,1.826373626,35.65202798
1.74329E+12,15:01.7,70,1732.600733,1.826373626,35.65202798
1.74329E+12,15:01.8,70,1782.417582,1.824908425,35.65202798
1.74329E+12,15:01.8,70,1791.941392,1.823443223,35.65202798
1.74329E+12,15:01.8,70,1786.813187,1.824908425,35.65202798
1.74329E+12,15:01.8,70,1769.96337,1.824908425,35.65202798
1.74329E+12,15:01.8,70,1753.113553,1.823443223,35.65202798
1.74329E+12,15:01.8,70,1739.92674,1.823443223,35.65202798
1.74329E+12,15:01.9,70,1709.157509,1.823443223,35.65202798
1.74329E+12,15:01.9,70,1657.875458,1.823443223,35.67203093
1.74329E+12,15:01.9,70,1597.802198,1.823443223,35.67203093
1.74329E+12,15:01.9,70,1549.450549,1.823443223,35.67203093
1.74329E+12,15:01.9,70,1512.820513,1.823443223,35.67203093
1.74329E+12,15:02.0,70,1490.10989,1.823443223,35.67203093
1.74329E+12,15:02.0,70,1473.260073,1.823443223,35.67203093
1.74329E+12,15:02.0,70,1451.282051,1.823443223,35.67203093
1.74329E+12,15:02.0,70,1428.571429,1.821978022,35.67203093
1.74329E+12,15:02.0,70,1405.860806,1.821978022,35.67203093
1.74329E+12,15:02.1,70,1383.882784,1.821978022,35.67203093
1.74329E+12,15:02.1,70,1358.974359,1.821978022,35.67203093
1.74329E+12,15:02.1,70,1337.728938,1.821978022,35.67203093
1.74329E+12,15:02.1,70,1316.483516,1.821978022,35.67203093
1.74329E+12,15:02.1,70,1301.098901,1.821978022,35.67203093
1.74329E+12,15:02.2,70,1274.725275,1.821978022,35.67203093
1.74329E+12,15:02.2,70,1254.945055,1.821978022,35.67203093
1.74329E+12,15:02.2,70,1249.81685,1.820512821,35.67203093
1.74329E+12,15:02.2,70,1229.304029,1.820512821,35.67203093
1.74329E+12,15:02.2,70,1214.652015,1.820512821,35.67203093
1.74329E+12,15:02.3,70,1213.186813,1.820512821,35.67203093
1.74329E+12,15:02.3,70,1201.465201,1.820512821,35.67203093
1.74329E+12,15:02.3,70,1206.593407,1.820512821,35.67203093
1.74329E+12,15:02.3,70,1205.860806,1.819047619,35.67203093
1.74329E+12,15:02.3,70,1192.673993,1.820512821,35.67203093
1.74329E+12,15:02.4,70,1192.673993,1.819047619,35.67203093
1.74329E+12,15:02.4,70,1191.208791,1.819047619,35.67203093
1.74329E+12,15:02.4,70,1186.080586,1.819047619,35.67203093
1.74329E+12,15:02.4,70,1176.556777,1.819047619,35.67203093
1.74329E+12,15:02.4,70,1188.278388,1.819047619,35.67203093
1.74329E+12,15:02.5,70,1255.677656,1.819047619,35.67203093
1.74329E+12,15:02.5,72,1364.102564,1.819047619,35.67203093
1.74329E+12,15:02.5,72,1482.783883,1.819047619,35.67203093
1.74329E+12,15:02.5,72,1602.930403,1.819047619,35.67203093
1.74329E+12,15:02.5,72,1695.970696,1.819047619,35.67203093
1.74329E+12,15:02.6,72,1749.450549,1.819047619,35.67203093
1.74329E+12,15:02.6,72,1758.974359,1.819047619,35.67203093
1.74329E+12,15:02.6,72,1767.765568,1.819047619,35.67203093
1.74329E+12,15:02.6,72,1781.684982,1.819047619,35.67203093
1.74329E+12,15:02.6,72,1778.754579,1.817582418,35.67203093
1.74329E+12,15:02.6,72,1771.428571,1.817582418,35.67203093
1.74329E+12,15:02.7,72,1755.311355,1.817582418,35.67203093
1.74329E+12,15:02.7,72,1712.087912,1.817582418,35.67203093
1.74329E+12,15:02.7,72,1659.340659,1.817582418,35.67203093
1.74329E+12,15:02.7,72,1601.465201,1.817582418,35.67203093
1.74329E+12,15:02.7,72,1554.578755,1.817582418,35.67203093
1.74329E+12,15:02.8,72,1518.681319,1.816117216,35.67203093
1.74329E+12,15:02.8,72,1482.051282,1.816117216,35.67203093
1.74329E+12,15:02.8,72,1461.538462,1.816117216,35.67203093
1.74329E+12,15:02.8,72,1447.619048,1.816117216,35.67203093
1.74329E+12,15:02.8,72,1432.967033,1.816117216,35.67203093
1.74329E+12,15:02.9,72,1413.186813,1.816117216,35.67203093
1.74329E+12,15:02.9,72,1394.139194,1.816117216,35.68703308
1.74329E+12,15:02.9,72,1385.347985,1.814652015,35.68703308
1.74329E+12,15:02.9,72,1372.893773,1.816117216,35.68703308
1.74329E+12,15:02.9,72,1350.915751,1.814652015,35.68703308
1.74329E+12,15:03.0,72,1320.14652,1.814652015,35.68703308
1.74329E+12,15:03.0,72,1287.912088,1.814652015,35.68703308
1.74329E+12,15:03.0,72,1259.340659,1.814652015,35.68703308
1.74329E+12,15:03.0,72,1234.432234,1.813186813,35.68703308
1.74329E+12,15:03.0,72,1226.373626,1.814652015,35.68703308
1.74329E+12,15:03.1,72,1216.117216,1.813186813,35.68703308
1.74329E+12,15:03.1,72,1201.465201,1.813186813,35.68703308
1.74329E+12,15:03.1,72,1207.326007,1.813186813,35.68703308
1.74329E+12,15:03.1,72,1199.267399,1.813186813,35.68703308
1.74329E+12,15:03.1,72,1192.673993,1.813186813,35.68703308
1.74329E+12,15:03.2,72,1192.673993,1.813186813,35.68703308
1.74329E+12,15:03.2,72,1188.278388,1.813186813,35.68703308
1.74329E+12,15:03.2,72,1186.080586,1.813186813,35.68703308
1.74329E+12,15:03.2,72,1208.058608,1.811721612,35.68703308
1.74329E+12,15:03.2,72,1272.527473,1.811721612,35.68703308
1.74329E+12,15:03.3,77,1372.161172,1.811721612,35.68703308
1.74329E+12,15:03.3,77,1495.238095,1.811721612,35.68703308
1.74329E+12,15:03.3,77,1616.117216,1.811721612,35.68703308
1.74329E+12,15:03.3,77,1708.424908,1.81025641,35.68703308
1.74329E+12,15:03.3,77,1747.985348,1.811721612,35.68703308
1.74329E+12,15:03.4,77,1767.032967,1.81025641,35.68703308
1.74329E+12,15:03.4,77,1782.417582,1.81025641,35.68703308
1.74329E+12,15:03.4,77,1785.347985,1.81025641,35.68703308
1.74329E+12,15:03.4,77,1783.150183,1.81025641,35.68703308
1.74329E+12,15:03.4,77,1783.150183,1.81025641,35.68703308
1.74329E+12,15:03.4,77,1774.358974,1.81025641,35.68703308
1.74329E+12,15:03.5,77,1734.065934,1.808791209,35.68703308
1.74329E+12,15:03.5,77,1668.131868,1.808791209,35.68703308
1.74329E+12,15:03.5,77,1590.47619,1.808791209,35.68703308
1.74329E+12,15:03.5,77,1533.333333,1.808791209,35.68703308
1.74329E+12,15:03.5,77,1493.040293,1.808791209,35.68703308
1.74329E+12,15:03.6,77,1472.527473,1.808791209,35.68703308
1.74329E+12,15:03.6,77,1463.736264,1.808791209,35.68703308
1.74329E+12,15:03.6,77,1448.351648,1.807326007,35.68703308
1.74329E+12,15:03.6,77,1429.304029,1.807326007,35.68703308
1.74329E+12,15:03.6,77,1401.465201,1.807326007,35.68703308
1.74329E+12,15:03.7,77,1366.300366,1.807326007,35.68703308
1.74329E+12,15:03.7,77,1335.531136,1.807326007,35.68703308
1.74329E+12,15:03.7,77,1298.168498,1.807326007,35.68703308
1.74329E+12,15:03.7,77,1275.457875,1.805860806,35.68703308
1.74329E+12,15:03.7,77,1265.934066,1.805860806,35.68703308
1.74329E+12,15:03.8,77,1252.014652,1.805860806,35.68703308
1.74329E+12,15:03.8,77,1242.490842,1.805860806,35.68703308
1.74329E+12,15:03.8,77,1237.362637,1.805860806,35.68703308
1.74329E+12,15:03.8,77,1230.769231,1.805860806,35.68703308
1.74329E+12,15:03.8,77,1220.512821,1.805860806,35.68703308
1.74329E+12,15:03.9,77,1216.849817,1.805860806,35.68703308
1.74329E+12,15:03.9,77,1210.989011,1.805860806,35.71203654
1.74329E+12,15:03.9,77,1194.871795,1.805860806,35.71203654
1.74329E+12,15:03.9,77,1185.347985,1.804395604,35.71203654
1.74329E+12,15:03.9,77,1169.96337,1.804395604,35.71203654
1.74329E+12,15:04.0,77,1147.985348,1.804395604,35.71203654
1.74329E+12,15:04.0,77,1130.40293,1.804395604,35.71203654
1.74329E+12,15:04.0,77,1141.391941,1.804395604,35.71203654
1.74329E+12,15:04.0,77,1183.882784,1.804395604,35.71203654
1.74329E+12,15:04.0,77,1275.457875,1.804395604,35.71203654
1.74329E+12,15:04.1,77,1396.336996,1.804395604,35.71203654
1.74329E+12,15:04.1,77,1534.798535,1.802930403,35.71203654
1.74329E+12,15:04.1,77,1652.014652,1.802930403,35.71203654
1.74329E+12,15:04.1,77,1720.14652,1.802930403,35.71203654
1.74329E+12,15:04.1,77,1758.974359,1.802930403,35.71203654
1.74329E+12,15:04.1,77,1775.091575,1.802930403,35.71203654
1.74329E+12,15:04.2,77,1768.498168,1.802930403,35.71203654
1.74329E+12,15:04.2,77,1766.300366,1.801465201,35.71203654
1.74329E+12,15:04.2,77,1756.776557,1.801465201,35.71203654
1.74329E+12,15:04.2,77,1742.124542,1.801465201,35.71203654
1.74329E+12,15:04.2,77,1721.611722,1.801465201,35.71203654
1.74329E+12,15:04.3,77,1687.179487,1.801465201,35.71203654
1.74329E+12,15:04.3,77,1641.758242,1.8,35.71203654
1.74329E+12,15:04.3,77,1588.278388,1.8,35.71203654
1.74329E+12,15:04.3,77,1542.124542,1.8,35.71203654
1.74329E+12,15:04.3,77,1508.424908,1.8,35.71203654
1.74329E+12,15:04.4,77,1476.190476,1.8,35.71203654
1.74329E+12,15:04.4,77,1450.549451,1.8,35.71203654
1.74329E+12,15:04.4,77,1422.710623,1.8,35.71203654
1.74329E+12,15:04.4,77,1392.673993,1.798534799,35.71203654
1.74329E+12,15:04.4,77,1372.893773,1.8,35.71203654
1.74329E+12,15:04.5,77,1367.032967,1.798534799,35.71203654
1.74329E+12,15:04.5,77,1353.113553,1.798534799,35.71203654
1.74329E+12,15:04.5,77,1325.274725,1.798534799,35.71203654
1.74329E+12,15:04.5,77,1286.446886,1.798534799,35.71203654
1.74329E+12,15:04.5,77,1261.538462,1.797069597,35.71203654
1.74329E+12,15:04.6,77,1251.282051,1.797069597,35.71203654
1.74329E+12,15:04.6,77,1245.421245,1.797069597,35.71203654
1.74329E+12,15:04.6,77,1227.106227,1.797069597,35.71203654
1.74329E+12,15:04.6,77,1199.267399,1.798534799,35.71203654
1.74329E+12,15:04.6,77,1184.615385,1.797069597,35.71203654
1.74329E+12,15:04.7,77,1184.615385,1.795604396,35.71203654
1.74329E+12,15:04.7,77,1192.673993,1.797069597,35.71203654
1.74329E+12,15:04.7,77,1189.74359,1.797069597,35.71203654
1.74329E+12,15:04.7,77,1192.673993,1.797069597,35.71203654
1.74329E+12,15:04.7,77,1203.663004,1.797069597,35.71203654
1.74329E+12,15:04.8,77,1193.406593,1.795604396,35.71203654
1.74329E+12,15:04.8,77,1180.952381,1.795604396,35.71203654
1.74329E+12,15:04.8,77,1178.021978,1.795604396,35.71203654
1.74329E+12,15:04.8,77,1172.893773,1.795604396,35.71203654
1.74329E+12,15:04.8,77,1180.952381,1.795604396,35.71203654
1.74329E+12,15:04.9,77,1238.827839,1.795604396,35.71203654
1.74329E+12,15:04.9,77,1341.391941,1.794139194,35.71703722
1.74329E+12,15:04.9,73,1454.945055,1.794139194,35.71703722
1.74329E+12,15:04.9,73,1562.637363,1.794139194,35.71703722
1.74329E+12,15:04.9,73,1647.619048,1.794139194,35.71703722
1.74329E+12,15:05.0,73,1702.564103,1.794139194,35.71703722
1.74329E+12,15:05.0,73,1740.659341,1.794139194,35.71703722
1.74329E+12,15:05.0,73,1753.113553,1.792673993,35.71703722
1.74329E+12,15:05.0,73,1760.43956,1.792673993,35.71703722
1.74329E+12,15:05.0,73,1744.322344,1.792673993,35.71703722
1.74329E+12,15:05.0,73,1727.472527,1.794139194,35.71703722
1.74329E+12,15:05.1,73,1711.355311,1.794139194,35.71703722
1.74329E+12,15:05.1,73,1684.981685,1.792673993,35.71703722
1.74329E+12,15:05.1,73,1638.827839,1.792673993,35.71703722
1.74329E+12,15:05.1,73,1588.278388,1.792673993,35.71703722
1.74329E+12,15:05.1,73,1546.520147,1.792673993,35.71703722
1.74329E+12,15:05.2,73,1495.238095,1.792673993,35.71703722
1.74329E+12,15:05.2,73,1451.282051,1.791208791,35.71703722
1.74329E+12,15:05.2,73,1414.652015,1.791208791,35.71703722
1.74329E+12,15:05.2,73,1392.673993,1.791208791,35.71703722
1.74329E+12,15:05.2,73,1383.882784,1.791208791,35.71703722
1.74329E+12,15:05.3,73,1380.21978,1.791208791,35.71703722
1.74329E+12,15:05.3,73,1370.695971,1.78974359,35.71703722
1.74329E+12,15:05.3,73,1351.648352,1.78974359,35.71703722
1.74329E+12,15:05.3,73,1335.531136,1.78974359,35.71703722
1.74329E+12,15:05.3,73,1324.542125,1.78974359,35.71703722
1.74329E+12,15:05.4,73,1306.227106,1.78974359,35.71703722
1.74329E+12,15:05.4,73,1272.527473,1.78974359,35.71703722
1.74329E+12,15:05.4,73,1242.490842,1.78974359,35.71703722
1.74329E+12,15:05.4,73,1228.571429,1.788278388,35.71703722
1.74329E+12,15:05.4,73,1208.058608,1.788278388,35.71703722
1.74329E+12,15:05.5,73,1181.684982,1.788278388,35.71703722
1.74329E+12,15:05.5,73,1167.032967,1.788278388,35.71703722
1.74329E+12,15:05.5,73,1168.498168,1.788278388,35.71703722
1.74329E+12,15:05.5,73,1158.974359,1.788278388,35.71703722
1.74329E+12,15:05.5,73,1133.333333,1.788278388,35.71703722
1.74329E+12,15:05.6,73,1125.274725,1.786813187,35.71703722
1.74329E+12,15:05.6,73,1133.333333,1.786813187,35.71703722
1.74329E+12,15:05.6,73,1130.40293,1.786813187,35.71703722
1.74329E+12,15:05.6,73,1129.67033,1.786813187,35.71703722
1.74329E+12,15:05.6,73,1128.205128,1.786813187,35.71703722
1.74329E+12,15:05.7,73,1131.868132,1.785347985,35.71703722
1.74329E+12,15:05.7,73,1129.67033,1.786813187,35.71703722
1.74329E+12,15:05.7,73,1162.637363,1.786813187,35.71703722
1.74329E+12,15:05.7,73,1241.758242,1.786813187,35.71703722
1.74329E+12,15:05.7,73,1350.18315,1.786813187,35.71703722
1.74329E+12,15:05.7,73,1452.014652,1.785347985,35.71703722
1.74329E+12,15:05.8,73,1526.007326,1.785347985,35.71703722
1.74329E+12,15:05.8,73,1590.47619,1.785347985,35.71703722
1.74329E+12,15:05.8,73,1638.827839,1.785347985,35.71703722
1.74329E+12,15:05.8,73,1668.131868,1.785347985,35.71703722
1.74329E+12,15:05.8,73,1680.586081,1.785347985,35.71703722
1.74329E+12,15:05.9,73,1668.131868,1.785347985,35.74204051
1.74329E+12,15:05.9,73,1652.014652,1.785347985,35.74204051
1.74329E+12,15:05.9,73,1639.56044,1.783882784,35.74204051
1.74329E+12,15:05.9,73,1628.571429,1.783882784,35.74204051
1.74329E+12,15:05.9,73,1608.058608,1.783882784,35.74204051
1.74329E+12,15:06.0,73,1568.498168,1.783882784,35.74204051
1.74329E+12,15:06.0,73,1512.820513,1.783882784,35.74204051
1.74329E+12,15:06.0,73,1468.864469,1.783882784,35.74204051
1.74329E+12,15:06.0,73,1436.630037,1.782417582,35.74204051
1.74329E+12,15:06.0,73,1413.919414,1.782417582,35.74204051
1.74329E+12,15:06.1,73,1397.069597,1.782417582,35.74204051
1.74329E+12,15:06.1,73,1378.754579,1.782417582,35.74204051
1.74329E+12,15:06.1,73,1365.567766,1.782417582,35.74204051
1.74329E+12,15:06.1,73,1353.846154,1.782417582,35.74204051
1.74329E+12,15:06.1,73,1331.135531,1.780952381,35.74204051
1.74329E+12,15:06.2,73,1301.831502,1.782417582,35.74204051
1.74329E+12,15:06.2,73,1281.318681,1.780952381,35.74204051
1.74329E+12,15:06.2,73,1273.260073,1.782417582,35.74204051
1.74329E+12,15:06.2,73,1263.003663,1.780952381,35.74204051
1.74329E+12,15:06.2,73,1243.223443,1.780952381,35.74204051
1.74329E+12,15:06.3,73,1224.908425,1.780952381,35.74204051
1.74329E+12,15:06.3,73,1207.326007,1.780952381,35.74204051
1.74329E+12,15:06.3,73,1185.347985,1.780952381,35.74204051
1.74329E+12,15:06.3,73,1171.428571,1.780952381,35.74204051
1.74329E+12,15:06.3,73,1163.369963,1.780952381,35.74204051
1.74329E+12,15:06.4,73,1164.102564,1.779487179,35.74204051
1.74329E+12,15:06.4,73,1162.637363,1.779487179,35.74204051
1.74329E+12,15:06.4,73,1147.985348,1.779487179,35.74204051
1.74329E+12,15:06.4,73,1151.648352,1.779487179,35.74204051
1.74329E+12,15:06.4,73,1149.450549,1.778021978,35.74204051
1.74329E+12,15:06.5,73,1143.589744,1.779487179,35.74204051
1.74329E+12,15:06.5,73,1132.600733,1.778021978,35.74204051
1.74329E+12,15:06.5,73,1116.483516,1.779487179,35.74204051
1.74329E+12,15:06.5,73,1112.087912,1.778021978,35.74204051
1.74329E+12,15:06.5,73,1109.89011,1.778021978,35.74204051
1.74329E+12,15:06.5,73,1128.937729,1.778021978,35.74204051
1.74329E+12,15:06.6,73,1204.395604,1.778021978,35.74204051
1.74329E+12,15:06.6,73,1309.157509,1.778021978,35.74204051
1.74329E+12,15:06.6,73,1413.919414,1.776556777,35.74204051
1.74329E+12,15:06.6,73,1493.040293,1.778021978,35.74204051
1.74329E+12,15:06.6,73,1544.322344,1.776556777,35.74204051
1.74329E+12,15:06.7,73,1569.96337,1.776556777,35.74204051
1.74329E+12,15:06.7,73,1579.487179,1.776556777,35.74204051
1.74329E+12,15:06.7,73,1583.150183,1.776556777,35.74204051
1.74329E+12,15:06.7,73,1575.824176,1.776556777,35.74204051
1.74329E+12,15:06.7,73,1562.637363,1.776556777,35.74204051
1.74329E+12,15:06.8,73,1550.18315,1.775091575,35.74204051
1.74329E+12,15:06.8,73,1547.252747,1.775091575,35.74204051
1.74329E+12,15:06.8,73,1536.996337,1.775091575,35.74204051
1.74329E+12,15:06.8,73,1506.227106,1.773626374,35.74204051
1.74329E+12,15:06.8,73,1461.538462,1.773626374,35.74204051
1.74329E+12,15:06.9,73,1432.234432,1.773626374,35.75704242
1.74329E+12,15:06.9,73,1395.604396,1.773626374,35.75704242
1.74329E+12,15:06.9,73,1377.289377,1.773626374,35.75704242
1.74329E+12,15:06.9,73,1375.091575,1.773626374,35.75704242
1.74329E+12,15:06.9,73,1368.498168,1.772161172,35.75704242
1.74329E+12,15:07.0,73,1347.252747,1.772161172,35.75704242
1.74329E+12,15:07.0,73,1327.472527,1.772161172,35.75704242
1.74329E+12,15:07.0,73,1304.029304,1.772161172,35.75704242
1.74329E+12,15:07.0,73,1291.575092,1.772161172,35.75704242
1.74329E+12,15:07.0,73,1273.260073,1.770695971,35.75704242
1.74329E+12,15:07.1,73,1252.014652,1.770695971,35.75704242
1.74329E+12,15:07.1,73,1241.758242,1.772161172,35.75704242
1.74329E+12,15:07.1,73,1241.025641,1.770695971,35.75704242
1.74329E+12,15:07.1,73,1232.967033,1.770695971,35.75704242
1.74329E+12,15:07.1,73,1229.304029,1.770695971,35.75704242
1.74329E+12,15:07.2,73,1221.978022,1.769230769,35.75704242
1.74329E+12,15:07.2,73,1213.919414,1.769230769,35.75704242
1.74329E+12,15:07.2,73,1203.663004,1.769230769,35.75704242
1.74329E+12,15:07.2,73,1185.347985,1.769230769,35.75704242
1.74329E+12,15:07.2,73,1165.567766,1.769230769,35.75704242
1.74329E+12,15:07.3,73,1148.717949,1.767765568,35.75704242
1.74329E+12,15:07.3,73,1137.728938,1.769230769,35.75704242
1.74329E+12,15:07.3,73,1133.333333,1.767765568,35.75704242
1.74329E+12,15:07.3,73,1149.450549,1.767765568,35.75704242
1.74329E+12,15:07.3,73,1175.091575,1.769230769,35.75704242
1.74329E+12,15:07.3,73,1243.956044,1.769230769,35.75704242
1.74329E+12,15:07.4,73,1328.205128,1.767765568,35.75704242
1.74329E+12,15:07.4,73,1408.791209,1.766300366,35.75704242
1.74329E+12,15:07.4,73,1476.190476,1.767765568,35.75704242
1.74329E+12,15:07.4,73,1523.076923,1.766300366,35.75704242
1.74329E+12,15:07.4,73,1548.717949,1.766300366,35.75704242
1.74329E+12,15:07.5,73,1569.230769,1.766300366,35.75704242
1.74329E+12,15:07.5,73,1581.684982,1.766300366,35.75704242
1.74329E+12,15:07.5,73,1574.358974,1.766300366,35.75704242
1.74329E+12,15:07.5,73,1547.252747,1.766300366,35.75704242
1.74329E+12,15:07.5,73,1528.205128,1.764835165,35.75704242
1.74329E+12,15:07.6,73,1512.820513,1.766300366,35.75704242
1.74329E+12,15:07.6,73,1484.981685,1.766300366,35.75704242
1.74329E+12,15:07.6,73,1458.608059,1.764835165,35.75704242
1.74329E+12,15:07.6,73,1435.897436,1.764835165,35.75704242
1.74329E+12,15:07.6,73,1410.25641,1.764835165,35.75704242
1.74329E+12,15:07.7,73,1399.267399,1.764835165,35.75704242
1.74329E+12,15:07.7,73,1395.604396,1.764835165,35.75704242
1.74329E+12,15:07.7,73,1382.417582,1.764835165,35.75704242
1.74329E+12,15:07.7,73,1353.113553,1.763369963,35.75704242
1.74329E+12,15:07.7,73,1326.007326,1.763369963,35.75704242
1.74329E+12,15:07.8,73,1295.970696,1.763369963,35.75704242
1.74329E+12,15:07.8,73,1276.923077,1.763369963,35.75704242
1.74329E+12,15:07.8,73,1271.062271,1.763369963,35.75704242
1.74329E+12,15:07.8,73,1254.945055,1.763369963,35.75704242
1.74329E+12,15:07.8,73,1233.699634,1.761904762,35.75704242
1.74329E+12,15:07.9,73,1218.315018,1.763369963,35.77704488
1.74329E+12,15:07.9,73,1210.25641,1.761904762,35.77704488
1.74329E+12,15:07.9,73,1217.582418,1.763369963,35.77704488
1.74329E+12,15:07.9,73,1216.117216,1.763369963,35.77704488
1.74329E+12,15:07.9,73,1217.582418,1.763369963,35.77704488
1.74329E+12,15:08.0,73,1224.175824,1.761904762,35.77704488
1.74329E+12,15:08.0,73,1226.373626,1.761904762,35.77704488
1.74329E+12,15:08.0,73,1205.128205,1.761904762,35.77704488
1.74329E+12,15:08.0,73,1178.754579,1.761904762,35.77704488
1.74329E+12,15:08.0,73,1161.904762,1.761904762,35.77704488
1.74329E+12,15:08.1,73,1168.498168,1.761904762,35.77704488
1.74329E+12,15:08.1,73,1199.267399,1.761904762,35.77704488
1.74329E+12,15:08.1,77,1265.201465,1.76043956,35.77704488
1.74329E+12,15:08.1,77,1350.18315,1.76043956,35.77704488
1.74329E+12,15:08.1,77,1430.769231,1.761904762,35.77704488
1.74329E+12,15:08.1,77,1488.644689,1.761904762,35.77704488
1.74329E+12,15:08.2,77,1534.798535,1.76043956,35.77704488
1.74329E+12,15:08.2,77,1550.915751,1.76043956,35.77704488
1.74329E+12,15:08.2,77,1564.835165,1.76043956,35.77704488
1.74329E+12,15:08.2,77,1578.021978,1.76043956,35.77704488
1.74329E+12,15:08.2,77,1597.069597,1.76043956,35.77704488
1.74329E+12,15:08.3,77,1602.930403,1.76043956,35.77704488
1.74329E+12,15:08.3,77,1600.732601,1.758974359,35.77704488
1.74329E+12,15:08.3,77,1585.347985,1.758974359,35.77704488
1.74329E+12,15:08.3,77,1560.43956,1.758974359,35.77704488
1.74329E+12,15:08.3,77,1527.472527,1.758974359,35.77704488
1.74329E+12,15:08.4,77,1497.435897,1.758974359,35.77704488
1.74329E+12,15:08.4,77,1478.388278,1.758974359,35.77704488
1.74329E+12,15:08.4,77,1447.619048,1.758974359,35.77704488
1.74329E+12,15:08.4,77,1424.175824,1.758974359,35.77704488
1.74329E+12,15:08.4,77,1411.721612,1.758974359,35.77704488
1.74329E+12,15:08.5,77,1400.732601,1.758974359,35.77704488
1.74329E+12,15:08.5,77,1382.417582,1.758974359,35.77704488
1.74329E+12,15:08.5,77,1369.96337,1.758974359,35.77704488
1.74329E+12,15:08.5,77,1366.300366,1.758974359,35.77704488
1.74329E+12,15:08.5,77,1358.974359,1.758974359,35.77704488
1.74329E+12,15:08.6,77,1343.589744,1.758974359,35.77704488
1.74329E+12,15:08.6,77,1322.344322,1.758974359,35.77704488
1.74329E+12,15:08.6,77,1297.435897,1.758974359,35.77704488
1.74329E+12,15:08.6,77,1269.59707,1.758974359,35.77704488
1.74329E+12,15:08.6,77,1246.886447,1.758974359,35.77704488
1.74329E+12,15:08.7,77,1234.432234,1.758974359,35.77704488
1.74329E+12,15:08.7,77,1217.582418,1.758974359,35.77704488
1.74329E+12,15:08.7,77,1204.395604,1.76043956,35.77704488
1.74329E+12,15:08.7,77,1194.871795,1.758974359,35.77704488
1.74329E+12,15:08.7,77,1192.673993,1.758974359,35.77704488
1.74329E+12,15:08.8,77,1198.534799,1.758974359,35.77704488
1.74329E+12,15:08.8,77,1198.534799,1.758974359,35.77704488
1.74329E+12,15:08.8,77,1197.069597,1.758974359,35.77704488
1.74329E+12,15:08.8,77,1205.860806,1.758974359,35.77704488
1.74329E+12,15:08.8,77,1241.758242,1.758974359,35.77704488
1.74329E+12,15:08.9,77,1306.959707,1.76043956,35.79204666
1.74329E+12,15:08.9,77,1398.534799,1.758974359,35.79204666
1.74329E+12,15:08.9,77,1495.970696,1.76043956,35.79204666
1.74329E+12,15:08.9,77,1578.021978,1.758974359,35.79204666
1.74329E+12,15:08.9,77,1634.432234,1.76043956,35.79204666
1.74329E+12,15:08.9,77,1666.666667,1.76043956,35.79204666
1.74329E+12,15:09.0,77,1679.85348,1.758974359,35.79204666
1.74329E+12,15:09.0,77,1687.912088,1.758974359,35.79204666
1.74329E+12,15:09.0,77,1697.435897,1.758974359,35.79204666
1.74329E+12,15:09.0,77,1711.355311,1.758974359,35.79204666
1.74329E+12,15:09.0,77,1718.681319,1.758974359,35.79204666
1.74329E+12,15:09.1,77,1699.6337,1.758974359,35.79204666
1.74329E+12,15:09.1,77,1659.340659,1.76043956,35.79204666
1.74329E+12,15:09.1,77,1618.315018,1.76043956,35.79204666
1.74329E+12,15:09.1,77,1558.241758,1.76043956,35.79204666
1.74329E+12,15:09.1,77,1513.553114,1.76043956,35.79204666
1.74329E+12,15:09.2,77,1484.249084,1.76043956,35.79204666
1.74329E+12,15:09.2,77,1460.805861,1.76043956,35.79204666
1.74329E+12,15:09.2,77,1433.699634,1.76043956,35.79204666
1.74329E+12,15:09.2,77,1407.326007,1.758974359,35.79204666
1.74329E+12,15:09.2,77,1385.347985,1.76043956,35.79204666
1.74329E+12,15:09.3,77,1378.754579,1.76043956,35.79204666
1.74329E+12,15:09.3,77,1372.161172,1.76043956,35.79204666
1.74329E+12,15:09.3,77,1356.043956,1.76043956,35.79204666
1.74329E+12,15:09.3,77,1336.263736,1.76043956,35.79204666
1.74329E+12,15:09.3,77,1317.216117,1.76043956,35.79204666
1.74329E+12,15:09.4,77,1298.168498,1.76043956,35.79204666
1.74329E+12,15:09.4,77,1268.131868,1.76043956,35.79204666
1.74329E+12,15:09.4,77,1241.758242,1.76043956,35.79204666
1.74329E+12,15:09.4,77,1238.827839,1.76043956,35.79204666
1.74329E+12,15:09.4,77,1233.699634,1.76043956,35.79204666
1.74329E+12,15:09.5,77,1230.03663,1.76043956,35.79204666
1.74329E+12,15:09.5,77,1229.304029,1.76043956,35.79204666
1.74329E+12,15:09.5,77,1233.699634,1.76043956,35.79204666
1.74329E+12,15:09.5,77,1224.175824,1.76043956,35.79204666
1.74329E+12,15:09.5,77,1208.791209,1.76043956,35.79204666
1.74329E+12,15:09.6,77,1191.208791,1.761904762,35.79204666
1.74329E+12,15:09.6,77,1199.267399,1.76043956,35.79204666
1.74329E+12,15:09.6,77,1216.849817,1.761904762,35.79204666
1.74329E+12,15:09.6,77,1263.003663,1.76043956,35.79204666
1.74329E+12,15:09.6,77,1336.996337,1.76043956,35.79204666
1.74329E+12,15:09.6,77,1423.443223,1.761904762,35.79204666
1.74329E+12,15:09.7,77,1506.227106,1.76043956,35.79204666
1.74329E+12,15:09.7,77,1580.952381,1.76043956,35.79204666
1.74329E+12,15:09.7,77,1623.443223,1.761904762,35.79204666
1.74329E+12,15:09.7,77,1654.212454,1.76043956,35.79204666
1.74329E+12,15:09.7,77,1690.842491,1.761904762,35.79204666
1.74329E+12,15:09.8,72,1726.739927,1.761904762,35.79204666
1.74329E+12,15:09.8,72,1733.333333,1.76043956,35.79204666
1.74329E+12,15:09.8,72,1743.589744,1.76043956,35.79204666
1.74329E+12,15:09.8,72,1750.915751,1.76043956,35.79204666
1.74329E+12,15:09.8,72,1736.263736,1.761904762,35.80204782
1.74329E+12,15:09.9,72,1700.3663,1.761904762,35.80204782
1.74329E+12,15:09.9,72,1659.340659,1.76043956,35.80204782
1.74329E+12,15:09.9,72,1607.326007,1.76043956,35.80204782
1.74329E+12,15:09.9,72,1561.172161,1.76043956,35.80204782
1.74329E+12,15:09.9,72,1528.937729,1.76043956,35.80204782
1.74329E+12,15:10.0,72,1497.435897,1.76043956,35.80204782
1.74329E+12,15:10.0,72,1452.014652,1.76043956,35.80204782
1.74329E+12,15:10.0,72,1413.186813,1.76043956,35.80204782
1.74329E+12,15:10.0,72,1402.930403,1.76043956,35.80204782
1.74329E+12,15:10.0,72,1385.347985,1.76043956,35.80204782
1.74329E+12,15:10.1,72,1366.300366,1.76043956,35.80204782
1.74329E+12,15:10.1,72,1350.18315,1.76043956,35.80204782
1.74329E+12,15:10.1,72,1326.739927,1.76043956,35.80204782
1.74329E+12,15:10.1,72,1306.959707,1.76043956,35.80204782
1.74329E+12,15:10.1,72,1282.783883,1.76043956,35.80204782
1.74329E+12,15:10.2,72,1259.340659,1.76043956,35.80204782
1.74329E+12,15:10.2,72,1241.025641,1.76043956,35.80204782
1.74329E+12,15:10.2,72,1232.967033,1.761904762,35.80204782
1.74329E+12,15:10.2,72,1230.03663,1.76043956,35.80204782
1.74329E+12,15:10.2,72,1228.571429,1.76043956,35.80204782
1.74329E+12,15:10.3,72,1219.047619,1.76043956,35.80204782
1.74329E+12,15:10.3,72,1207.326007,1.76043956,35.80204782
1.74329E+12,15:10.3,72,1200,1.761904762,35.80204782
1.74329E+12,15:10.3,72,1189.010989,1.761904762,35.80204782
1.74329E+12,15:10.3,72,1176.556777,1.761904762,35.80204782
1.74329E+12,15:10.4,72,1162.637363,1.761904762,35.80204782
1.74329E+12,15:10.4,72,1167.765568,1.761904762,35.80204782
1.74329E+12,15:10.4,72,1164.835165,1.76043956,35.80204782
1.74329E+12,15:10.4,72,1164.102564,1.76043956,35.80204782
1.74329E+12,15:10.4,72,1189.74359,1.76043956,35.80204782
1.74329E+12,15:10.4,72,1241.758242,1.76043956,35.80204782
1.74329E+12,15:10.5,72,1307.692308,1.76043956,35.80204782
1.74329E+12,15:10.5,72,1401.465201,1.76043956,35.80204782
1.74329E+12,15:10.5,72,1487.179487,1.758974359,35.80204782
1.74329E+12,15:10.5,72,1542.857143,1.758974359,35.80204782
1.74329E+12,15:10.5,72,1579.487179,1.758974359,35.80204782
1.74329E+12,15:10.6,72,1613.186813,1.758974359,35.80204782
1.74329E+12,15:10.6,72,1654.212454,1.758974359,35.80204782
1.74329E+12,15:10.6,72,1701.831502,1.757509158,35.80204782
1.74329E+12,15:10.6,72,1736.996337,1.757509158,35.80204782
1.74329E+12,15:10.6,72,1740.659341,1.757509158,35.80204782
1.74329E+12,15:10.7,72,1733.333333,1.757509158,35.80204782
1.74329E+12,15:10.7,72,1720.879121,1.757509158,35.80204782
1.74329E+12,15:10.7,72,1685.714286,1.757509158,35.80204782
1.74329E+12,15:10.7,72,1635.164835,1.757509158,35.80204782
1.74329E+12,15:10.7,72,1585.347985,1.757509158,35.80204782
1.74329E+12,15:10.8,72,1536.996337,1.756043956,35.80204782
1.74329E+12,15:10.8,72,1485.714286,1.757509158,35.80204782
1.74329E+12,15:10.8,72,1450.549451,1.757509158,35.80204782
1.74329E+12,15:10.8,72,1427.838828,1.756043956,35.80204782
1.74329E+12,15:10.8,72,1408.791209,1.756043956,35.81704951
1.74329E+12,15:10.9,72,1394.139194,1.756043956,35.81704951
1.74329E+12,15:10.9,72,1371.428571,1.754578755,35.81704951
1.74329E+12,15:10.9,72,1345.054945,1.754578755,35.81704951
1.74329E+12,15:10.9,72,1318.681319,1.754578755,35.81704951
1.74329E+12,15:10.9,72,1287.179487,1.754578755,35.81704951
1.74329E+12,15:11.0,72,1268.864469,1.754578755,35.81704951
1.74329E+12,15:11.0,72,1254.945055,1.754578755,35.81704951
1.74329E+12,15:11.0,72,1232.967033,1.754578755,35.81704951
1.74329E+12,15:11.0,72,1222.710623,1.754578755,35.81704951
1.74329E+12,15:11.0,72,1212.454212,1.754578755,35.81704951
1.74329E+12,15:11.1,72,1197.802198,1.754578755,35.81704951
1.74329E+12,15:11.1,72,1197.069597,1.753113553,35.81704951
1.74329E+12,15:11.1,72,1195.604396,1.753113553,35.81704951
1.74329E+12,15:11.1,72,1197.802198,1.754578755,35.81704951
1.74329E+12,15:11.1,72,1194.139194,1.754578755,35.81704951
1.74329E+12,15:11.2,72,1187.545788,1.754578755,35.81704951
1.74329E+12,15:11.2,72,1180.21978,1.753113553,35.81704951
1.74329E+12,15:11.2,72,1164.835165,1.753113553,35.81704951
1.74329E+12,15:11.2,72,1154.578755,1.753113553,35.81704951
1.74329E+12,15:11.2,72,1149.450549,1.753113553,35.81704951
1.74329E+12,15:11.2,72,1159.70696,1.753113553,35.81704951
1.74329E+12,15:11.3,72,1176.556777,1.753113553,35.81704951
1.74329E+12,15:11.3,72,1211.721612,1.753113553,35.81704951
1.74329E+12,15:11.3,72,1276.190476,1.753113553,35.81704951
1.74329E+12,15:11.3,72,1350.18315,1.751648352,35.81704951
1.74329E+12,15:11.3,72,1426.373626,1.751648352,35.81704951
1.74329E+12,15:11.4,72,1495.970696,1.751648352,35.81704951
1.74329E+12,15:11.4,72,1543.589744,1.751648352,35.81704951
1.74329E+12,15:11.4,70,1583.150183,1.751648352,35.81704951
1.74329E+12,15:11.4,70,1606.593407,1.751648352,35.81704951
1.74329E+12,15:11.4,70,1612.454212,1.751648352,35.81704951
1.74329E+12,15:11.5,70,1608.791209,1.751648352,35.81704951
1.74329E+12,15:11.5,70,1610.989011,1.75018315,35.81704951
1.74329E+12,15:11.5,70,1608.791209,1.75018315,35.81704951
1.74329E+12,15:11.5,70,1589.74359,1.75018315,35.81704951
1.74329E+12,15:11.5,70,1555.311355,1.75018315,35.81704951
1.74329E+12,15:11.6,70,1519.413919,1.75018315,35.81704951
1.74329E+12,15:11.6,70,1486.446886,1.75018315,35.81704951
1.74329E+12,15:11.6,70,1449.81685,1.75018315,35.81704951
1.74329E+12,15:11.6,70,1421.245421,1.75018315,35.81704951
1.74329E+12,15:11.6,70,1412.454212,1.748717949,35.81704951
1.74329E+12,15:11.7,70,1410.25641,1.748717949,35.81704951
1.74329E+12,15:11.7,70,1408.058608,1.748717949,35.81704951
1.74329E+12,15:11.7,70,1399.267399,1.748717949,35.81704951
1.74329E+12,15:11.7,70,1365.567766,1.748717949,35.81704951
1.74329E+12,15:11.7,70,1321.611722,1.748717949,35.81704951
1.74329E+12,15:11.8,70,1290.10989,1.748717949,35.81704951
1.74329E+12,15:11.8,70,1257.142857,1.747252747,35.81704951
1.74329E+12,15:11.8,70,1234.432234,1.747252747,35.81704951
1.74329E+12,15:11.8,70,1225.641026,1.747252747,35.81704951
1.74329E+12,15:11.8,70,1235.897436,1.747252747,35.83705169
1.74329E+12,15:11.9,70,1246.153846,1.747252747,35.83705169
1.74329E+12,15:11.9,70,1241.758242,1.747252747,35.83705169
1.74329E+12,15:11.9,70,1227.838828,1.747252747,35.83705169
1.74329E+12,15:11.9,70,1217.582418,1.745787546,35.83705169
1.74329E+12,15:11.9,70,1213.919414,1.747252747,35.83705169
1.74329E+12,15:12.0,70,1204.395604,1.745787546,35.83705169
1.74329E+12,15:12.0,70,1200.732601,1.745787546,35.83705169
1.74329E+12,15:12.0,70,1191.208791,1.745787546,35.83705169
1.74329E+12,15:12.0,70,1194.139194,1.745787546,35.83705169
1.74329E+12,15:12.0,70,1194.871795,1.745787546,35.83705169
1.74329E+12,15:12.0,70,1209.52381,1.745787546,35.83705169
1.74329E+12,15:12.1,70,1246.153846,1.745787546,35.83705169
1.74329E+12,15:12.1,70,1320.879121,1.745787546,35.83705169
1.74329E+12,15:12.1,70,1404.395604,1.745787546,35.83705169
1.74329E+12,15:12.1,70,1476.923077,1.745787546,35.83705169
1.74329E+12,15:12.1,70,1523.076923,1.744322344,35.83705169
1.74329E+12,15:12.2,77,1554.578755,1.744322344,35.83705169
1.74329E+12,15:12.2,77,1569.230769,1.744322344,35.83705169
1.74329E+12,15:12.2,77,1574.358974,1.744322344,35.83705169
1.74329E+12,15:12.2,77,1578.754579,1.744322344,35.83705169
1.74329E+12,15:12.2,77,1575.091575,1.744322344,35.83705169
1.74329E+12,15:12.3,77,1559.70696,1.744322344,35.83705169
1.74329E+12,15:12.3,77,1545.054945,1.742857143,35.83705169
1.74329E+12,15:12.3,77,1520.14652,1.744322344,35.83705169
1.74329E+12,15:12.3,77,1487.179487,1.742857143,35.83705169
1.74329E+12,15:12.3,77,1449.81685,1.742857143,35.83705169
1.74329E+12,15:12.4,77,1425.641026,1.742857143,35.83705169
1.74329E+12,15:12.4,77,1410.25641,1.742857143,35.83705169
1.74329E+12,15:12.4,77,1386.813187,1.742857143,35.83705169
1.74329E+12,15:12.4,77,1365.567766,1.742857143,35.83705169
1.74329E+12,15:12.4,77,1334.798535,1.741391941,35.83705169
1.74329E+12,15:12.5,77,1303.296703,1.742857143,35.83705169
1.74329E+12,15:12.5,77,1289.377289,1.741391941,35.83705169
1.74329E+12,15:12.5,77,1292.307692,1.741391941,35.83705169
1.74329E+12,15:12.5,77,1291.575092,1.741391941,35.83705169
1.74329E+12,15:12.5,77,1273.260073,1.741391941,35.83705169
1.74329E+12,15:12.6,77,1254.945055,1.741391941,35.83705169
1.74329E+12,15:12.6,77,1238.095238,1.741391941,35.83705169
1.74329E+12,15:12.6,77,1222.710623,1.741391941,35.83705169
1.74329E+12,15:12.6,77,1215.384615,1.741391941,35.83705169
1.74329E+12,15:12.6,77,1211.721612,1.73992674,35.83705169
1.74329E+12,15:12.7,77,1208.791209,1.73992674,35.83705169
1.74329E+12,15:12.7,77,1202.930403,1.73992674,35.83705169
1.74329E+12,15:12.7,77,1198.534799,1.73992674,35.83705169
1.74329E+12,15:12.7,77,1194.139194,1.73992674,35.83705169
1.74329E+12,15:12.7,77,1184.615385,1.73992674,35.83705169
1.74329E+12,15:12.8,77,1171.428571,1.73992674,35.83705169
1.74329E+12,15:12.8,77,1172.893773,1.73992674,35.83705169
1.74329E+12,15:12.8,77,1207.326007,1.73992674,35.83705169
1.74329E+12,15:12.8,77,1265.934066,1.73992674,35.83705169
1.74329E+12,15:12.8,77,1344.322344,1.73992674,35.84705275
1.74329E+12,15:12.8,77,1434.432234,1.73992674,35.84705275
1.74329E+12,15:12.9,77,1498.901099,1.73992674,35.84705275
1.74329E+12,15:12.9,77,1542.857143,1.738461538,35.84705275
1.74329E+12,15:12.9,77,1576.556777,1.738461538,35.84705275
1.74329E+12,15:12.9,79,1611.721612,1.736996337,35.84705275
1.74329E+12,15:12.9,79,1622.710623,1.738461538,35.84705275
1.74329E+12,15:13.0,79,1643.223443,1.738461538,35.84705275
1.74329E+12,15:13.0,79,1654.945055,1.736996337,35.84705275
1.74329E+12,15:13.0,79,1645.421245,1.736996337,35.84705275
1.74329E+12,15:13.0,79,1629.304029,1.736996337,35.84705275
1.74329E+12,15:13.0,79,1586.813187,1.736996337,35.84705275
1.74329E+12,15:13.1,79,1521.611722,1.736996337,35.84705275
1.74329E+12,15:13.1,79,1471.062271,1.736996337,35.84705275
1.74329E+12,15:13.1,79,1438.095238,1.736996337,35.84705275
1.74329E+12,15:13.1,79,1405.128205,1.736996337,35.84705275
1.74329E+12,15:13.1,79,1391.208791,1.736996337,35.84705275
1.74329E+12,15:13.2,79,1385.347985,1.736996337,35.84705275
1.74329E+12,15:13.2,79,1372.893773,1.736996337,35.84705275
1.74329E+12,15:13.2,79,1362.637363,1.736996337,35.84705275
1.74329E+12,15:13.2,79,1341.391941,1.736996337,35.84705275
1.74329E+12,15:13.2,79,1315.750916,1.735531136,35.84705275
1.74329E+12,15:13.3,79,1287.912088,1.736996337,35.84705275
1.74329E+12,15:13.3,79,1259.340659,1.735531136,35.84705275
1.74329E+12,15:13.3,79,1234.432234,1.735531136,35.84705275
1.74329E+12,15:13.3,79,1228.571429,1.735531136,35.84705275
1.74329E+12,15:13.3,79,1242.490842,1.735531136,35.84705275
1.74329E+12,15:13.4,79,1238.827839,1.735531136,35.84705275
1.74329E+12,15:13.4,79,1213.186813,1.735531136,35.84705275
1.74329E+12,15:13.4,79,1194.139194,1.735531136,35.84705275
1.74329E+12,15:13.4,79,1183.150183,1.735531136,35.84705275
1.74329E+12,15:13.4,79,1178.754579,1.735531136,35.84705275
1.74329E+12,15:13.5,79,1194.871795,1.735531136,35.84705275
1.74329E+12,15:13.5,79,1199.267399,1.735531136,35.84705275
1.74329E+12,15:13.5,79,1185.347985,1.734065934,35.84705275
1.74329E+12,15:13.5,79,1171.428571,1.734065934,35.84705275
1.74329E+12,15:13.5,79,1179.487179,1.735531136,35.84705275
1.74329E+12,15:13.5,79,1214.652015,1.734065934,35.84705275
1.74329E+12,15:13.6,79,1280.586081,1.734065934,35.84705275
1.74329E+12,15:13.6,79,1375.091575,1.734065934,35.84705275
1.74329E+12,15:13.6,79,1471.794872,1.734065934,35.84705275
1.74329E+12,15:13.6,79,1551.648352,1.734065934,35.84705275
1.74329E+12,15:13.6,79,1608.791209,1.734065934,35.84705275
1.74329E+12,15:13.7,79,1646.153846,1.734065934,35.84705275
1.74329E+12,15:13.7,79,1666.666667,1.732600733,35.84705275
1.74329E+12,15:13.7,79,1671.062271,1.732600733,35.84705275
1.74329E+12,15:13.7,79,1662.271062,1.732600733,35.84705275
1.74329E+12,15:13.7,79,1653.479853,1.732600733,35.84705275
1.74329E+12,15:13.8,79,1651.282051,1.732600733,35.84705275
1.74329E+12,15:13.8,79,1623.443223,1.731135531,35.84705275
1.74329E+12,15:13.8,79,1592.673993,1.731135531,35.84705275
1.74329E+12,15:13.8,79,1545.054945,1.731135531,35.86705479
1.74329E+12,15:13.8,79,1495.970696,1.72967033,35.86705479
1.74329E+12,15:13.9,79,1460.805861,1.72967033,35.86705479
1.74329E+12,15:13.9,79,1432.234432,1.72967033,35.86705479
1.74329E+12,15:13.9,79,1403.663004,1.72967033,35.86705479
1.74329E+12,15:13.9,79,1382.417582,1.72967033,35.86705479
1.74329E+12,15:13.9,79,1367.765568,1.72967033,35.86705479
1.74329E+12,15:14.0,79,1347.252747,1.728205128,35.86705479
1.74329E+12,15:14.0,79,1312.087912,1.72967033,35.86705479
1.74329E+12,15:14.0,79,1295.238095,1.72967033,35.86705479
1.74329E+12,15:14.0,79,1290.10989,1.728205128,35.86705479
1.74329E+12,15:14.0,79,1276.190476,1.728205128,35.86705479
1.74329E+12,15:14.1,79,1254.212454,1.728205128,35.86705479
1.74329E+12,15:14.1,79,1225.641026,1.728205128,35.86705479
1.74329E+12,15:14.1,79,1210.25641,1.728205128,35.86705479
1.74329E+12,15:14.1,79,1204.395604,1.728205128,35.86705479
1.74329E+12,15:14.1,79,1213.186813,1.728205128,35.86705479
1.74329E+12,15:14.2,79,1203.663004,1.728205128,35.86705479
1.74329E+12,15:14.2,79,1191.941392,1.726739927,35.86705479
1.74329E+12,15:14.2,79,1197.069597,1.728205128,35.86705479
1.74329E+12,15:14.2,79,1201.465201,1.726739927,35.86705479
1.74329E+12,15:14.2,79,1201.465201,1.726739927,35.86705479
1.74329E+12,15:14.3,79,1191.208791,1.726739927,35.86705479
1.74329E+12,15:14.3,79,1168.498168,1.726739927,35.86705479
1.74329E+12,15:14.3,79,1158.974359,1.726739927,35.86705479
1.74329E+12,15:14.3,79,1201.465201,1.726739927,35.86705479
1.74329E+12,15:14.3,79,1282.783883,1.725274725,35.86705479
1.74329E+12,15:14.3,79,1380.952381,1.726739927,35.86705479
1.74329E+12,15:14.4,79,1481.318681,1.725274725,35.86705479
1.74329E+12,15:14.4,79,1567.765568,1.725274725,35.86705479
1.74329E+12,15:14.4,79,1624.908425,1.725274725,35.86705479
1.74329E+12,15:14.4,79,1660.805861,1.725274725,35.86705479
1.74329E+12,15:14.4,79,1690.10989,1.725274725,35.86705479
1.74329E+12,15:14.5,79,1697.435897,1.725274725,35.86705479
1.74329E+12,15:14.5,79,1696.703297,1.723809524,35.86705479
1.74329E+12,15:14.5,79,1693.772894,1.723809524,35.86705479
1.74329E+12,15:14.5,79,1677.655678,1.723809524,35.86705479
1.74329E+12,15:14.5,79,1651.282051,1.723809524,35.86705479
1.74329E+12,15:14.6,75,1606.593407,1.723809524,35.86705479
1.74329E+12,15:14.6,75,1571.428571,1.723809524,35.86705479
1.74329E+12,15:14.6,75,1527.472527,1.723809524,35.86705479
1.74329E+12,15:14.6,75,1480.586081,1.723809524,35.86705479
1.74329E+12,15:14.6,75,1454.945055,1.722344322,35.86705479
1.74329E+12,15:14.7,75,1423.443223,1.722344322,35.86705479
1.74329E+12,15:14.7,75,1394.139194,1.722344322,35.86705479
1.74329E+12,15:14.7,75,1376.556777,1.722344322,35.86705479
1.74329E+12,15:14.7,75,1363.369963,1.722344322,35.86705479
1.74329E+12,15:14.7,75,1347.985348,1.720879121,35.86705479
1.74329E+12,15:14.8,75,1328.205128,1.720879121,35.86705479
1.74329E+12,15:14.8,75,1306.959707,1.722344322,35.86705479
1.74329E+12,15:14.8,75,1284.249084,1.720879121,35.86705479
1.74329E+12,15:14.8,75,1248.351648,1.720879121,35.88705674
1.74329E+12,15:14.8,75,1212.454212,1.720879121,35.88705674
1.74329E+12,15:14.9,75,1201.465201,1.720879121,35.88705674
1.74329E+12,15:14.9,75,1201.465201,1.719413919,35.88705674
1.74329E+12,15:14.9,75,1208.058608,1.719413919,35.88705674
1.74329E+12,15:14.9,75,1210.25641,1.719413919,35.88705674
1.74329E+12,15:14.9,75,1201.465201,1.719413919,35.88705674
1.74329E+12,15:15.0,75,1192.673993,1.719413919,35.88705674
1.74329E+12,15:15.0,75,1184.615385,1.719413919,35.88705674
1.74329E+12,15:15.0,75,1183.882784,1.719413919,35.88705674
1.74329E+12,15:15.0,75,1189.74359,1.719413919,35.88705674
1.74329E+12,15:15.0,75,1194.139194,1.719413919,35.88705674
1.74329E+12,15:15.1,75,1191.208791,1.719413919,35.88705674
1.74329E+12,15:15.1,75,1178.754579,1.719413919,35.88705674
1.74329E+12,15:15.1,75,1189.010989,1.719413919,35.88705674
1.74329E+12,15:15.1,75,1251.282051,1.719413919,35.88705674
1.74329E+12,15:15.1,75,1353.113553,1.717948718,35.88705674
1.74329E+12,15:15.1,75,1454.945055,1.719413919,35.88705674
1.74329E+12,15:15.2,75,1544.322344,1.719413919,35.88705674
1.74329E+12,15:15.2,75,1614.652015,1.717948718,35.88705674
1.74329E+12,15:15.2,75,1651.282051,1.717948718,35.88705674
1.74329E+12,15:15.2,75,1674.725275,1.717948718,35.88705674
1.74329E+12,15:15.2,75,1698.168498,1.717948718,35.88705674
1.74329E+12,15:15.3,75,1715.750916,1.717948718,35.88705674
1.74329E+12,15:15.3,75,1725.274725,1.717948718,35.88705674
1.74329E+12,15:15.3,75,1721.611722,1.717948718,35.88705674
1.74329E+12,15:15.3,75,1695.238095,1.717948718,35.88705674
1.74329E+12,15:15.3,75,1653.479853,1.719413919,35.88705674
1.74329E+12,15:15.4,75,1593.406593,1.717948718,35.88705674
1.74329E+12,15:15.4,72,1534.798535,1.717948718,35.88705674
1.74329E+12,15:15.4,72,1484.981685,1.717948718,35.88705674
1.74329E+12,15:15.4,72,1452.014652,1.717948718,35.88705674
1.74329E+12,15:15.4,72,1431.501832,1.717948718,35.88705674
1.74329E+12,15:15.5,72,1403.663004,1.717948718,35.88705674
1.74329E+12,15:15.5,72,1378.021978,1.717948718,35.88705674
1.74329E+12,15:15.5,72,1353.113553,1.717948718,35.88705674
1.74329E+12,15:15.5,72,1329.67033,1.716483516,35.88705674
1.74329E+12,15:15.5,72,1317.216117,1.716483516,35.88705674
1.74329E+12,15:15.6,72,1304.029304,1.717948718,35.88705674
1.74329E+12,15:15.6,72,1297.435897,1.717948718,35.88705674
1.74329E+12,15:15.6,72,1281.318681,1.716483516,35.88705674
1.74329E+12,15:15.6,72,1254.212454,1.717948718,35.88705674
1.74329E+12,15:15.6,72,1230.03663,1.716483516,35.88705674
1.74329E+12,15:15.7,72,1207.326007,1.716483516,35.88705674
1.74329E+12,15:15.7,72,1186.080586,1.716483516,35.88705674
1.74329E+12,15:15.7,72,1172.161172,1.716483516,35.88705674
1.74329E+12,15:15.7,72,1167.032967,1.716483516,35.88705674
1.74329E+12,15:15.7,72,1164.835165,1.716483516,35.88705674
1.74329E+12,15:15.8,72,1169.230769,1.716483516,35.88705674
1.74329E+12,15:15.8,72,1171.428571,1.716483516,35.88705674
1.74329E+12,15:15.8,72,1169.96337,1.716483516,35.88705674
1.74329E+12,15:15.8,72,1156.043956,1.716483516,35.89705767
1.74329E+12,15:15.8,72,1147.252747,1.716483516,35.89705767
1.74329E+12,15:15.9,72,1136.996337,1.716483516,35.89705767
1.74329E+12,15:15.9,72,1147.252747,1.716483516,35.89705767
1.74329E+12,15:15.9,72,1173.626374,1.716483516,35.89705767
1.74329E+12,15:15.9,72,1233.699634,1.716483516,35.89705767
1.74329E+12,15:15.9,72,1315.750916,1.716483516,35.89705767
1.74329E+12,15:15.9,72,1397.802198,1.716483516,35.89705767
1.74329E+12,15:16.0,72,1491.575092,1.716483516,35.89705767
1.74329E+12,15:16.0,72,1576.556777,1.715018315,35.89705767
1.74329E+12,15:16.0,72,1622.710623,1.715018315,35.89705767
1.74329E+12,15:16.0,72,1654.212454,1.715018315,35.89705767
1.74329E+12,15:16.0,72,1666.666667,1.715018315,35.89705767
1.74329E+12,15:16.1,72,1665.934066,1.715018315,35.89705767
1.74329E+12,15:16.1,72,1668.864469,1.715018315,35.89705767
1.74329E+12,15:16.1,72,1661.538462,1.715018315,35.89705767
1.74329E+12,15:16.1,73,1651.282051,1.713553114,35.89705767
1.74329E+12,15:16.1,73,1626.373626,1.713553114,35.89705767
1.74329E+12,15:16.2,73,1561.904762,1.713553114,35.89705767
1.74329E+12,15:16.2,73,1498.901099,1.713553114,35.89705767
1.74329E+12,15:16.2,73,1432.967033,1.713553114,35.89705767
1.74329E+12,15:16.2,73,1396.336996,1.713553114,35.89705767
1.74329E+12,15:16.2,73,1386.813187,1.713553114,35.89705767
1.74329E+12,15:16.3,73,1381.684982,1.713553114,35.89705767
1.74329E+12,15:16.3,73,1375.091575,1.713553114,35.89705767
1.74329E+12,15:16.3,73,1359.70696,1.713553114,35.89705767
1.74329E+12,15:16.3,73,1343.589744,1.713553114,35.89705767
1.74329E+12,15:16.3,73,1327.472527,1.713553114,35.89705767
1.74329E+12,15:16.4,73,1315.018315,1.713553114,35.89705767
1.74329E+12,15:16.4,73,1304.029304,1.713553114,35.89705767
1.74329E+12,15:16.4,73,1290.842491,1.712087912,35.89705767
1.74329E+12,15:16.4,73,1265.934066,1.712087912,35.89705767
1.74329E+12,15:16.4,73,1235.897436,1.712087912,35.89705767
1.74329E+12,15:16.5,73,1219.047619,1.712087912,35.89705767
1.74329E+12,15:16.5,73,1207.326007,1.712087912,35.89705767
1.74329E+12,15:16.5,73,1197.069597,1.712087912,35.89705767
1.74329E+12,15:16.5,73,1183.150183,1.712087912,35.89705767
1.74329E+12,15:16.5,73,1181.684982,1.712087912,35.89705767
1.74329E+12,15:16.6,73,1185.347985,1.712087912,35.89705767
1.74329E+12,15:16.6,73,1192.673993,1.712087912,35.89705767
1.74329E+12,15:16.6,73,1185.347985,1.712087912,35.89705767
1.74329E+12,15:16.6,73,1169.96337,1.712087912,35.89705767
1.74329E+12,15:16.6,73,1151.648352,1.710622711,35.89705767
1.74329E+12,15:16.6,73,1152.380952,1.710622711,35.89705767
1.74329E+12,15:16.7,73,1168.498168,1.712087912,35.89705767
1.74329E+12,15:16.7,73,1219.78022,1.710622711,35.89705767
1.74329E+12,15:16.7,73,1333.333333,1.710622711,35.89705767
1.74329E+12,15:16.7,73,1452.747253,1.710622711,35.89705767
1.74329E+12,15:16.7,73,1539.194139,1.710622711,35.89705767
1.74329E+12,15:16.8,73,1591.941392,1.710622711,35.89705767
1.74329E+12,15:16.8,73,1625.641026,1.710622711,35.89705767
1.74329E+12,15:16.8,73,1631.501832,1.710622711,35.91205904
1.74329E+12,15:16.8,73,1625.641026,1.709157509,35.91205904
1.74329E+12,15:16.8,73,1616.849817,1.709157509,35.91205904
1.74329E+12,15:16.9,73,1609.52381,1.709157509,35.91205904
1.74329E+12,15:16.9,81,1601.465201,1.709157509,35.91205904
1.74329E+12,15:16.9,81,1593.406593,1.709157509,35.91205904
1.74329E+12,15:16.9,81,1565.567766,1.709157509,35.91205904
1.74329E+12,15:16.9,81,1517.948718,1.709157509,35.91205904
1.74329E+12,15:17.0,81,1468.131868,1.709157509,35.91205904
1.74329E+12,15:17.0,81,1432.234432,1.709157509,35.91205904
1.74329E+12,15:17.0,81,1412.454212,1.707692308,35.91205904
1.74329E+12,15:17.0,81,1386.080586,1.709157509,35.91205904
1.74329E+12,15:17.0,81,1368.498168,1.707692308,35.91205904
1.74329E+12,15:17.1,81,1347.252747,1.707692308,35.91205904
1.74329E+12,15:17.1,81,1334.798535,1.707692308,35.91205904
1.74329E+12,15:17.1,81,1334.065934,1.707692308,35.91205904
1.74329E+12,15:17.1,81,1330.40293,1.707692308,35.91205904
1.74329E+12,15:17.1,81,1307.692308,1.707692308,35.91205904
1.74329E+12,15:17.2,81,1286.446886,1.706227106,35.91205904
1.74329E+12,15:17.2,81,1271.062271,1.706227106,35.91205904
1.74329E+12,15:17.2,81,1251.282051,1.706227106,35.91205904
1.74329E+12,15:17.2,81,1219.78022,1.706227106,35.91205904
1.74329E+12,15:17.2,81,1207.326007,1.706227106,35.91205904
1.74329E+12,15:17.3,81,1209.52381,1.706227106,35.91205904
1.74329E+12,15:17.3,81,1202.197802,1.706227106,35.91205904
1.74329E+12,15:17.3,81,1205.860806,1.706227106,35.91205904
1.74329E+12,15:17.3,81,1208.791209,1.706227106,35.91205904
1.74329E+12,15:17.3,81,1188.278388,1.706227106,35.91205904
1.74329E+12,15:17.4,81,1169.96337,1.706227106,35.91205904
1.74329E+12,15:17.4,81,1172.893773,1.706227106,35.91205904
1.74329E+12,15:17.4,81,1216.849817,1.706227106,35.91205904
1.74329E+12,15:17.4,81,1309.157509,1.706227106,35.91205904
1.74329E+12,15:17.4,81,1416.117216,1.704761905,35.91205904
1.74329E+12,15:17.5,81,1506.227106,1.704761905,35.91205904
1.74329E+12,15:17.5,81,1584.615385,1.704761905,35.91205904
1.74329E+12,15:17.5,81,1647.619048,1.704761905,35.91205904
1.74329E+12,15:17.5,81,1682.051282,1.704761905,35.91205904
1.74329E+12,15:17.5,81,1697.435897,1.704761905,35.91205904
1.74329E+12,15:17.5,81,1690.842491,1.703296703,35.91205904
1.74329E+12,15:17.6,81,1693.040293,1.703296703,35.91205904
1.74329E+12,15:17.6,81,1683.516484,1.703296703,35.91205904
1.74329E+12,15:17.6,81,1665.934066,1.703296703,35.91205904
1.74329E+12,15:17.6,79,1644.688645,1.703296703,35.91205904
1.74329E+12,15:17.6,79,1603.663004,1.703296703,35.91205904
1.74329E+12,15:17.7,79,1545.054945,1.703296703,35.91205904
1.74329E+12,15:17.7,79,1501.098901,1.703296703,35.91205904
1.74329E+12,15:17.7,79,1476.190476,1.701831502,35.91205904
1.74329E+12,15:17.7,79,1454.945055,1.701831502,35.91205904
1.74329E+12,15:17.7,79,1430.769231,1.701831502,35.91205904
1.74329E+12,15:17.8,79,1401.465201,1.701831502,35.91205904
1.74329E+12,15:17.8,79,1385.347985,1.701831502,35.91205904
1.74329E+12,15:17.8,79,1389.010989,1.701831502,35.92706035
1.74329E+12,15:17.8,79,1389.74359,1.701831502,35.92706035
1.74329E+12,15:17.8,79,1386.813187,1.703296703,35.92706035
1.74329E+12,15:17.9,79,1369.230769,1.701831502,35.92706035
1.74329E+12,15:17.9,79,1336.996337,1.701831502,35.92706035
1.74329E+12,15:17.9,79,1320.14652,1.701831502,35.92706035
1.74329E+12,15:17.9,79,1304.029304,1.701831502,35.92706035
1.74329E+12,15:17.9,79,1279.85348,1.7003663,35.92706035
1.74329E+12,15:18.0,79,1258.608059,1.701831502,35.92706035
1.74329E+12,15:18.0,79,1242.490842,1.7003663,35.92706035
1.74329E+12,15:18.0,79,1230.769231,1.7003663,35.92706035
1.74329E+12,15:18.0,79,1220.512821,1.7003663,35.92706035
1.74329E+12,15:18.0,79,1205.860806,1.7003663,35.92706035
1.74329E+12,15:18.1,79,1198.534799,1.7003663,35.92706035
1.74329E+12,15:18.1,79,1213.186813,1.7003663,35.92706035
1.74329E+12,15:18.1,79,1281.318681,1.7003663,35.92706035
1.74329E+12,15:18.1,79,1390.47619,1.698901099,35.92706035
1.74329E+12,15:18.1,79,1505.494505,1.7003663,35.92706035
1.74329E+12,15:18.2,79,1605.860806,1.698901099,35.92706035
1.74329E+12,15:18.2,79,1678.388278,1.698901099,35.92706035
1.74329E+12,15:18.2,79,1727.472527,1.698901099,35.92706035
1.74329E+12,15:18.2,79,1764.835165,1.697435897,35.92706035
1.74329E+12,15:18.2,79,1776.556777,1.698901099,35.92706035
1.74329E+12,15:18.2,79,1788.278388,1.697435897,35.92706035
1.74329E+12,15:18.3,79,1802.930403,1.697435897,35.92706035
1.74329E+12,15:18.3,79,1804.395604,1.697435897,35.92706035
1.74329E+12,15:18.3,79,1776.556777,1.697435897,35.92706035
1.74329E+12,15:18.3,79,1727.472527,1.697435897,35.92706035
1.74329E+12,15:18.3,79,1683.516484,1.697435897,35.92706035
1.74329E+12,15:18.4,79,1643.956044,1.697435897,35.92706035
1.74329E+12,15:18.4,81,1608.791209,1.695970696,35.92706035
1.74329E+12,15:18.4,81,1573.626374,1.695970696,35.92706035
1.74329E+12,15:18.4,81,1536.263736,1.695970696,35.92706035
1.74329E+12,15:18.4,81,1513.553114,1.695970696,35.92706035
1.74329E+12,15:18.5,81,1512.087912,1.695970696,35.92706035
1.74329E+12,15:18.5,81,1506.227106,1.695970696,35.92706035
1.74329E+12,15:18.5,81,1480.586081,1.695970696,35.92706035
1.74329E+12,15:18.5,81,1446.153846,1.695970696,35.92706035
1.74329E+12,15:18.5,81,1419.047619,1.695970696,35.92706035
1.74329E+12,15:18.6,81,1402.197802,1.695970696,35.92706035
1.74329E+12,15:18.6,81,1383.150183,1.694505495,35.92706035
1.74329E+12,15:18.6,81,1357.509158,1.694505495,35.92706035
1.74329E+12,15:18.6,81,1328.937729,1.694505495,35.92706035
1.74329E+12,15:18.6,81,1289.377289,1.694505495,35.92706035
1.74329E+12,15:18.7,81,1251.282051,1.694505495,35.92706035
1.74329E+12,15:18.7,81,1232.234432,1.694505495,35.92706035
1.74329E+12,15:18.7,81,1235.164835,1.693040293,35.92706035
1.74329E+12,15:18.7,81,1240.29304,1.693040293,35.92706035
1.74329E+12,15:18.7,81,1233.699634,1.694505495,35.92706035
1.74329E+12,15:18.8,81,1218.315018,1.693040293,35.92706035
1.74329E+12,15:18.8,81,1239.56044,1.693040293,35.92706035
1.74329E+12,15:18.8,81,1300.3663,1.693040293,35.9370612
1.74329E+12,15:18.8,81,1385.347985,1.693040293,35.9370612
1.74329E+12,15:18.8,81,1490.842491,1.693040293,35.9370612
1.74329E+12,15:18.9,81,1601.465201,1.693040293,35.9370612
1.74329E+12,15:18.9,81,1695.970696,1.691575092,35.9370612
1.74329E+12,15:18.9,81,1761.904762,1.691575092,35.9370612
1.74329E+12,15:18.9,81,1793.406593,1.691575092,35.9370612
1.74329E+12,15:18.9,81,1805.128205,1.691575092,35.9370612
1.74329E+12,15:19.0,81,1818.315018,1.691575092,35.9370612
1.74329E+12,15:19.0,81,1832.234432,1.691575092,35.9370612
1.74329E+12,15:19.0,81,1830.769231,1.691575092,35.9370612
1.74329E+12,15:19.0,81,1815.384615,1.69010989,35.9370612
1.74329E+12,15:19.0,81,1784.615385,1.69010989,35.9370612
1.74329E+12,15:19.0,81,1742.124542,1.69010989,35.9370612
1.74329E+12,15:19.1,81,1695.238095,1.69010989,35.9370612
1.74329E+12,15:19.1,81,1638.095238,1.69010989,35.9370612
1.74329E+12,15:19.1,81,1578.021978,1.69010989,35.9370612
1.74329E+12,15:19.1,81,1529.67033,1.69010989,35.9370612
1.74329E+12,15:19.1,81,1490.10989,1.69010989,35.9370612
1.74329E+12,15:19.2,81,1480.586081,1.69010989,35.9370612
1.74329E+12,15:19.2,79,1481.318681,1.69010989,35.9370612
1.74329E+12,15:19.2,79,1473.992674,1.688644689,35.9370612
1.74329E+12,15:19.2,79,1456.410256,1.688644689,35.9370612
1.74329E+12,15:19.2,79,1420.512821,1.688644689,35.9370612
1.74329E+12,15:19.3,79,1380.21978,1.688644689,35.9370612
1.74329E+12,15:19.3,79,1351.648352,1.688644689,35.9370612
1.74329E+12,15:19.3,79,1333.333333,1.688644689,35.9370612
1.74329E+12,15:19.3,79,1317.216117,1.687179487,35.9370612
1.74329E+12,15:19.3,79,1308.424908,1.688644689,35.9370612
1.74329E+12,15:19.4,79,1294.505495,1.687179487,35.9370612
1.74329E+12,15:19.4,79,1278.388278,1.687179487,35.9370612
1.74329E+12,15:19.4,79,1254.945055,1.687179487,35.9370612
1.74329E+12,15:19.4,79,1236.630037,1.687179487,35.9370612
1.74329E+12,15:19.4,79,1224.908425,1.687179487,35.9370612
1.74329E+12,15:19.5,79,1207.326007,1.687179487,35.9370612
1.74329E+12,15:19.5,79,1191.941392,1.687179487,35.9370612
1.74329E+12,15:19.5,79,1200,1.685714286,35.9370612
1.74329E+12,15:19.5,79,1246.886447,1.685714286,35.9370612
1.74329E+12,15:19.5,79,1333.333333,1.685714286,35.9370612
1.74329E+12,15:19.6,79,1438.827839,1.685714286,35.9370612
1.74329E+12,15:19.6,79,1539.92674,1.685714286,35.9370612
1.74329E+12,15:19.6,79,1637.362637,1.685714286,35.9370612
1.74329E+12,15:19.6,79,1717.948718,1.685714286,35.9370612
1.74329E+12,15:19.6,79,1779.487179,1.684249084,35.9370612
1.74329E+12,15:19.7,79,1810.25641,1.684249084,35.9370612
1.74329E+12,15:19.7,79,1827.838828,1.684249084,35.9370612
1.74329E+12,15:19.7,79,1838.827839,1.684249084,35.9370612
1.74329E+12,15:19.7,79,1849.81685,1.684249084,35.9370612
1.74329E+12,15:19.7,79,1852.747253,1.684249084,35.9370612
1.74329E+12,15:19.8,79,1825.641026,1.684249084,35.9370612
1.74329E+12,15:19.8,79,1758.241758,1.682783883,35.9370612
1.74329E+12,15:19.8,79,1670.32967,1.682783883,35.94706202
1.74329E+12,15:19.8,79,1599.267399,1.682783883,35.94706202
1.74329E+12,15:19.8,79,1547.985348,1.682783883,35.94706202
1.74329E+12,15:19.8,79,1506.227106,1.682783883,35.94706202
1.74329E+12,15:19.9,79,1467.399267,1.682783883,35.94706202
1.74329E+12,15:19.9,79,1443.956044,1.682783883,35.94706202
1.74329E+12,15:19.9,79,1427.838828,1.681318681,35.94706202
1.74329E+12,15:19.9,79,1419.78022,1.681318681,35.94706202
1.74329E+12,15:19.9,79,1406.593407,1.681318681,35.94706202
1.74329E+12,15:20.0,79,1388.278388,1.681318681,35.94706202
1.74329E+12,15:20.0,75,1369.230769,1.681318681,35.94706202
1.74329E+12,15:20.0,75,1339.92674,1.681318681,35.94706202
1.74329E+12,15:20.0,75,1305.494505,1.681318681,35.94706202
1.74329E+12,15:20.0,75,1275.457875,1.681318681,35.94706202
1.74329E+12,15:20.1,75,1252.014652,1.681318681,35.94706202
1.74329E+12,15:20.1,75,1241.758242,1.67985348,35.94706202
1.74329E+12,15:20.1,75,1229.304029,1.681318681,35.94706202
1.74329E+12,15:20.1,75,1230.03663,1.67985348,35.94706202
1.74329E+12,15:20.1,75,1216.849817,1.67985348,35.94706202
1.74329E+12,15:20.2,75,1208.058608,1.67985348,35.94706202
1.74329E+12,15:20.2,75,1193.406593,1.67985348,35.94706202
1.74329E+12,15:20.2,75,1186.813187,1.67985348,35.94706202
1.74329E+12,15:20.2,75,1175.091575,1.67985348,35.94706202
1.74329E+12,15:20.2,75,1167.032967,1.67985348,35.94706202
1.74329E+12,15:20.3,75,1183.882784,1.67985348,35.94706202
1.74329E+12,15:20.3,75,1244.688645,1.67985348,35.94706202
1.74329E+12,15:20.3,75,1345.054945,1.67985348,35.94706202
1.74329E+12,15:20.3,75,1438.095238,1.67985348,35.94706202
1.74329E+12,15:20.3,75,1513.553114,1.678388278,35.94706202
1.74329E+12,15:20.4,75,1578.754579,1.678388278,35.94706202
1.74329E+12,15:20.4,75,1633.699634,1.678388278,35.94706202
1.74329E+12,15:20.4,75,1668.864469,1.678388278,35.94706202
1.74329E+12,15:20.4,75,1693.040293,1.678388278,35.94706202
1.74329E+12,15:20.4,75,1708.424908,1.678388278,35.94706202
1.74329E+12,15:20.5,75,1720.879121,1.678388278,35.94706202
1.74329E+12,15:20.5,75,1716.483516,1.676923077,35.94706202
1.74329E+12,15:20.5,75,1698.168498,1.676923077,35.94706202
1.74329E+12,15:20.5,75,1657.142857,1.678388278,35.94706202
1.74329E+12,15:20.5,75,1589.010989,1.678388278,35.94706202
1.74329E+12,15:20.6,75,1518.681319,1.676923077,35.94706202
1.74329E+12,15:20.6,75,1469.59707,1.676923077,35.94706202
1.74329E+12,15:20.6,75,1443.956044,1.678388278,35.94706202
1.74329E+12,15:20.6,75,1435.164835,1.676923077,35.94706202
1.74329E+12,15:20.6,75,1425.641026,1.676923077,35.94706202
1.74329E+12,15:20.6,75,1409.52381,1.676923077,35.94706202
1.74329E+12,15:20.7,75,1393.406593,1.676923077,35.94706202
1.74329E+12,15:20.7,75,1379.487179,1.676923077,35.94706202
1.74329E+12,15:20.7,75,1368.498168,1.676923077,35.94706202
1.74329E+12,15:20.7,75,1350.915751,1.676923077,35.94706202
1.74329E+12,15:20.7,75,1315.018315,1.676923077,35.94706202
1.74329E+12,15:20.8,75,1269.59707,1.675457875,35.94706202
1.74329E+12,15:20.8,75,1243.956044,1.675457875,35.97206397
1.74329E+12,15:20.8,75,1238.095238,1.675457875,35.97206397
1.74329E+12,15:20.8,75,1222.710623,1.675457875,35.97206397
1.74329E+12,15:20.8,75,1213.919414,1.675457875,35.97206397
1.74329E+12,15:20.9,75,1200.732601,1.675457875,35.97206397
1.74329E+12,15:20.9,75,1180.952381,1.673992674,35.97206397
1.74329E+12,15:20.9,75,1173.626374,1.673992674,35.97206397
1.74329E+12,15:20.9,75,1171.428571,1.673992674,35.97206397
1.74329E+12,15:20.9,75,1169.230769,1.673992674,35.97206397
1.74329E+12,15:21.0,75,1168.498168,1.673992674,35.97206397
1.74329E+12,15:21.0,75,1167.765568,1.673992674,35.97206397
1.74329E+12,15:21.0,75,1187.545788,1.673992674,35.97206397
1.74329E+12,15:21.0,75,1241.758242,1.673992674,35.97206397
1.74329E+12,15:21.0,75,1300.3663,1.673992674,35.97206397
1.74329E+12,15:21.1,75,1361.904762,1.673992674,35.97206397
1.74329E+12,15:21.1,75,1433.699634,1.673992674,35.97206397
1.74329E+12,15:21.1,75,1509.157509,1.672527473,35.97206397
1.74329E+12,15:21.1,75,1567.765568,1.673992674,35.97206397
1.74329E+12,15:21.1,75,1602.197802,1.672527473,35.97206397
1.74329E+12,15:21.2,75,1630.03663,1.672527473,35.97206397
1.74329E+12,15:21.2,75,1635.164835,1.672527473,35.97206397
1.74329E+12,15:21.2,75,1638.827839,1.671062271,35.97206397
1.74329E+12,15:21.2,75,1643.223443,1.671062271,35.97206397
1.74329E+12,15:21.2,75,1627.106227,1.671062271,35.97206397
1.74329E+12,15:21.3,75,1589.74359,1.672527473,35.97206397
1.74329E+12,15:21.3,75,1532.600733,1.671062271,35.97206397
1.74329E+12,15:21.3,75,1487.912088,1.671062271,35.97206397
1.74329E+12,15:21.3,75,1451.282051,1.671062271,35.97206397
1.74329E+12,15:21.3,75,1413.186813,1.671062271,35.97206397
1.74329E+12,15:21.4,75,1383.882784,1.671062271,35.97206397
1.74329E+12,15:21.4,75,1364.835165,1.671062271,35.97206397
1.74329E+12,15:21.4,75,1361.172161,1.671062271,35.97206397
1.74329E+12,15:21.4,75,1361.904762,1.66959707,35.97206397
1.74329E+12,15:21.4,75,1345.787546,1.66959707,35.97206397
1.74329E+12,15:21.4,75,1319.413919,1.66959707,35.97206397
1.74329E+12,15:21.5,79,1290.10989,1.66959707,35.97206397
1.74329E+12,15:21.5,79,1275.457875,1.66959707,35.97206397
1.74329E+12,15:21.5,79,1279.85348,1.66959707,35.97206397
1.74329E+12,15:21.5,79,1275.457875,1.66959707,35.97206397
1.74329E+12,15:21.5,79,1263.003663,1.66959707,35.97206397
1.74329E+12,15:21.6,79,1254.212454,1.66959707,35.97206397
1.74329E+12,15:21.6,79,1246.153846,1.66959707,35.97206397
1.74329E+12,15:21.6,79,1217.582418,1.66959707,35.97206397
1.74329E+12,15:21.6,79,1204.395604,1.671062271,35.97206397
1.74329E+12,15:21.6,79,1188.278388,1.671062271,35.97206397
1.74329E+12,15:21.7,79,1167.765568,1.672527473,35.97206397
1.74329E+12,15:21.7,79,1162.637363,1.671062271,35.97206397
1.74329E+12,15:21.7,79,1173.626374,1.671062271,35.97206397
1.74329E+12,15:21.7,79,1184.615385,1.671062271,35.97206397
1.74329E+12,15:21.7,79,1202.197802,1.672527473,35.97206397
1.74329E+12,15:21.8,79,1244.688645,1.671062271,35.97206397
1.74329E+12,15:21.8,79,1312.820513,1.671062271,35.97706434
1.74329E+12,15:21.8,79,1397.069597,1.671062271,35.97706434
1.74329E+12,15:21.8,79,1466.666667,1.671062271,35.97706434
1.74329E+12,15:21.8,79,1522.344322,1.66959707,35.97706434
1.74329E+12,15:21.9,79,1576.556777,1.66959707,35.97706434
1.74329E+12,15:21.9,79,1608.058608,1.66959707,35.97706434
1.74329E+12,15:21.9,79,1619.78022,1.66959707,35.97706434
1.74329E+12,15:21.9,79,1628.571429,1.66959707,35.97706434
1.74329E+12,15:21.9,79,1627.838828,1.66959707,35.97706434
1.74329E+12,15:22.0,79,1621.245421,1.66959707,35.97706434
1.74329E+12,15:22.0,79,1603.663004,1.668131868,35.97706434
1.74329E+12,15:22.0,79,1561.904762,1.66959707,35.97706434
1.74329E+12,15:22.0,79,1515.018315,1.66959707,35.97706434
1.74329E+12,15:22.0,79,1486.446886,1.66959707,35.97706434
1.74329E+12,15:22.1,79,1466.666667,1.668131868,35.97706434
1.74329E+12,15:22.1,79,1444.688645,1.66959707,35.97706434
1.74329E+12,15:22.1,79,1411.721612,1.668131868,35.97706434
1.74329E+12,15:22.1,79,1383.882784,1.668131868,35.97706434
1.74329E+12,15:22.1,79,1367.032967,1.668131868,35.97706434
1.74329E+12,15:22.1,79,1347.252747,1.668131868,35.97706434
1.74329E+12,15:22.2,83,1319.413919,1.668131868,35.97706434
1.74329E+12,15:22.2,83,1292.307692,1.668131868,35.97706434
1.74329E+12,15:22.2,83,1263.736264,1.668131868,35.97706434
1.74329E+12,15:22.2,83,1235.164835,1.668131868,35.97706434
1.74329E+12,15:22.2,83,1226.373626,1.66959707,35.97706434
1.74329E+12,15:22.3,83,1224.175824,1.66959707,35.97706434
1.74329E+12,15:22.3,83,1216.117216,1.671062271,35.97706434
1.74329E+12,15:22.3,83,1201.465201,1.671062271,35.97706434
1.74329E+12,15:22.3,83,1191.208791,1.671062271,35.97706434
1.74329E+12,15:22.3,83,1180.952381,1.671062271,35.97706434
1.74329E+12,15:22.4,83,1181.684982,1.671062271,35.97706434
1.74329E+12,15:22.4,83,1175.091575,1.66959707,35.97706434
1.74329E+12,15:22.4,83,1161.172161,1.66959707,35.97706434
1.74329E+12,15:22.4,83,1147.985348,1.66959707,35.97706434
1.74329E+12,15:22.4,83,1142.124542,1.66959707,35.97706434
1.74329E+12,15:22.5,83,1136.996337,1.66959707,35.97706434
1.74329E+12,15:22.5,83,1156.776557,1.66959707,35.97706434
1.74329E+12,15:22.5,83,1208.058608,1.66959707,35.97706434
1.74329E+12,15:22.5,83,1285.714286,1.66959707,35.97706434
1.74329E+12,15:22.5,83,1365.567766,1.668131868,35.97706434
1.74329E+12,15:22.6,83,1365.567766,1.668131868,35.97706434
1.74329E+12,15:22.6,83,1486.446886,1.668131868,35.97706434
1.74329E+12,15:22.6,83,1516.483516,1.668131868,35.97706434
1.74329E+12,15:22.6,83,1545.054945,1.668131868,35.97706434
1.74329E+12,15:22.6,83,1561.172161,1.668131868,35.97706434
1.74329E+12,15:22.7,83,1572.893773,1.668131868,35.97706434
1.74329E+12,15:22.7,83,1595.604396,1.666666667,35.97706434
1.74329E+12,15:22.7,83,1619.047619,1.666666667,35.97706434
1.74329E+12,15:22.7,83,1619.047619,1.666666667,35.97706434
1.74329E+12,15:22.7,83,1569.230769,1.666666667,35.97706434
1.74329E+12,15:22.8,83,1516.483516,1.666666667,35.97706434
1.74329E+12,15:22.8,83,1476.190476,1.666666667,35.99706578
1.74329E+12,15:22.8,83,1452.747253,1.666666667,35.99706578
1.74329E+12,15:22.8,83,1430.769231,1.666666667,35.99706578
1.74329E+12,15:22.8,83,1403.663004,1.665201465,35.99706578
1.74329E+12,15:22.9,83,1361.904762,1.666666667,35.99706578
1.74329E+12,15:22.9,83,1322.344322,1.665201465,35.99706578
1.74329E+12,15:22.9,85,1305.494505,1.665201465,35.99706578
1.74329E+12,15:22.9,85,1308.424908,1.665201465,35.99706578
1.74329E+12,15:22.9,85,1303.296703,1.665201465,35.99706578
1.74329E+12,15:22.9,85,1293.040293,1.665201465,35.99706578
1.74329E+12,15:23.0,85,1271.062271,1.665201465,35.99706578
1.74329E+12,15:23.0,85,1246.153846,1.663736264,35.99706578
1.74329E+12,15:23.0,85,1218.315018,1.665201465,35.99706578
1.74329E+12,15:23.0,85,1196.336996,1.663736264,35.99706578
1.74329E+12,15:23.0,85,1194.139194,1.663736264,35.99706578
1.74329E+12,15:23.1,85,1191.208791,1.663736264,35.99706578
1.74329E+12,15:23.1,85,1175.824176,1.663736264,35.99706578
1.74329E+12,15:23.1,85,1164.835165,1.663736264,35.99706578
1.74329E+12,15:23.1,85,1176.556777,1.663736264,35.99706578
1.74329E+12,15:23.1,85,1189.010989,1.663736264,35.99706578
1.74329E+12,15:23.2,85,1176.556777,1.662271062,35.99706578
1.74329E+12,15:23.2,85,1146.520147,1.662271062,35.99706578
1.74329E+12,15:23.2,85,1136.263736,1.663736264,35.99706578
1.74329E+12,15:23.2,85,1136.263736,1.663736264,35.99706578
1.74329E+12,15:23.2,85,1156.776557,1.662271062,35.99706578
1.74329E+12,15:23.3,85,1195.604396,1.662271062,35.99706578
1.74329E+12,15:23.3,85,1252.747253,1.662271062,35.99706578
1.74329E+12,15:23.3,85,1320.14652,1.662271062,35.99706578
1.74329E+12,15:23.3,85,1398.534799,1.662271062,35.99706578
1.74329E+12,15:23.3,85,1460.805861,1.662271062,35.99706578
1.74329E+12,15:23.4,85,1511.355311,1.660805861,35.99706578
1.74329E+12,15:23.4,85,1550.915751,1.662271062,35.99706578
1.74329E+12,15:23.4,85,1585.347985,1.662271062,35.99706578
1.74329E+12,15:23.4,85,1605.128205,1.662271062,35.99706578
1.74329E+12,15:23.4,85,1607.326007,1.660805861,35.99706578
1.74329E+12,15:23.5,85,1597.069597,1.660805861,35.99706578
1.74329E+12,15:23.5,85,1583.150183,1.660805861,35.99706578
1.74329E+12,15:23.5,85,1539.92674,1.660805861,35.99706578
1.74329E+12,15:23.5,85,1493.040293,1.660805861,35.99706578
1.74329E+12,15:23.5,85,1450.549451,1.660805861,35.99706578
1.74329E+12,15:23.6,85,1411.721612,1.659340659,35.99706578
1.74329E+12,15:23.6,85,1385.347985,1.659340659,35.99706578
1.74329E+12,15:23.6,85,1369.96337,1.660805861,35.99706578
1.74329E+12,15:23.6,83,1373.626374,1.660805861,35.99706578
1.74329E+12,15:23.6,83,1367.032967,1.660805861,35.99706578
1.74329E+12,15:23.7,83,1335.531136,1.659340659,35.99706578
1.74329E+12,15:23.7,83,1314.285714,1.660805861,35.99706578
1.74329E+12,15:23.7,83,1293.772894,1.659340659,35.99706578
1.74329E+12,15:23.7,83,1269.59707,1.659340659,35.99706578
1.74329E+12,15:23.7,83,1241.758242,1.659340659,35.99706578
1.74329E+12,15:23.7,83,1215.384615,1.659340659,35.99706578
1.74329E+12,15:23.8,83,1199.267399,1.659340659,36.00206612
1.74329E+12,15:23.8,83,1191.208791,1.659340659,36.00206612
1.74329E+12,15:23.8,83,1195.604396,1.659340659,36.00206612
1.74329E+12,15:23.8,83,1192.673993,1.657875458,36.00206612
1.74329E+12,15:23.8,83,1188.278388,1.657875458,36.00206612
1.74329E+12,15:23.9,83,1184.615385,1.657875458,36.00206612
1.74329E+12,15:23.9,83,1189.74359,1.657875458,36.00206612
1.74329E+12,15:23.9,83,1189.74359,1.657875458,36.00206612
1.74329E+12,15:23.9,83,1186.813187,1.657875458,36.00206612
1.74329E+12,15:23.9,83,1179.487179,1.657875458,36.00206612
1.74329E+12,15:24.0,83,1164.835165,1.657875458,36.00206612
1.74329E+12,15:24.0,83,1156.776557,1.657875458,36.00206612
1.74329E+12,15:24.0,83,1150.915751,1.657875458,36.00206612
1.74329E+12,15:24.0,83,1163.369963,1.657875458,36.00206612
1.74329E+12,15:24.0,83,1201.465201,1.657875458,36.00206612
1.74329E+12,15:24.1,83,1252.014652,1.656410256,36.00206612
1.74329E+12,15:24.1,83,1326.739927,1.656410256,36.00206612
1.74329E+12,15:24.1,83,1410.989011,1.656410256,36.00206612
1.74329E+12,15:24.1,83,1476.190476,1.656410256,36.00206612
1.74329E+12,15:24.1,83,1524.542125,1.656410256,36.00206612
1.74329E+12,15:24.2,83,1564.102564,1.656410256,36.00206612
1.74329E+12,15:24.2,83,1578.021978,1.656410256,36.00206612
1.74329E+12,15:24.2,83,1592.673993,1.656410256,36.00206612
1.74329E+12,15:24.2,83,1607.326007,1.656410256,36.00206612
1.74329E+12,15:24.2,83,1613.919414,1.656410256,36.00206612
1.74329E+12,15:24.3,83,1609.52381,1.656410256,36.00206612
1.74329E+12,15:24.3,83,1593.406593,1.656410256,36.00206612
1.74329E+12,15:24.3,83,1550.18315,1.656410256,36.00206612
1.74329E+12,15:24.3,83,1510.622711,1.656410256,36.00206612
1.74329E+12,15:24.3,83,1471.062271,1.656410256,36.00206612
1.74329E+12,15:24.4,83,1437.362637,1.656410256,36.00206612
1.74329E+12,15:24.4,83,1419.78022,1.656410256,36.00206612
1.74329E+12,15:24.4,83,1418.315018,1.656410256,36.00206612
1.74329E+12,15:24.4,83,1408.058608,1.656410256,36.00206612
1.74329E+12,15:24.4,83,1390.47619,1.656410256,36.00206612
1.74329E+12,15:24.5,83,1372.161172,1.656410256,36.00206612
1.74329E+12,15:24.5,83,1347.985348,1.656410256,36.00206612
1.74329E+12,15:24.5,83,1322.344322,1.656410256,36.00206612
1.74329E+12,15:24.5,83,1287.179487,1.656410256,36.00206612
1.74329E+12,15:24.5,83,1259.340659,1.656410256,36.00206612
1.74329E+12,15:24.5,83,1242.490842,1.656410256,36.00206612
1.74329E+12,15:24.6,83,1235.164835,1.656410256,36.00206612
1.74329E+12,15:24.6,83,1224.908425,1.656410256,36.00206612
1.74329E+12,15:24.6,83,1213.919414,1.656410256,36.00206612
1.74329E+12,15:24.6,83,1201.465201,1.657875458,36.00206612
1.74329E+12,15:24.6,83,1189.010989,1.657875458,36.00206612
1.74329E+12,15:24.7,83,1184.615385,1.657875458,36.00206612
1.74329E+12,15:24.7,83,1195.604396,1.657875458,36.00206612
1.74329E+12,15:24.7,83,1197.069597,1.657875458,36.00206612
1.74329E+12,15:24.7,83,1189.74359,1.657875458,36.00206612
1.74329E+12,15:24.7,83,1193.406593,1.657875458,36.00206612
1.74329E+12,15:24.8,83,1200,1.657875458,36.02206744
1.74329E+12,15:24.8,83,1205.128205,1.657875458,36.02206744
1.74329E+12,15:24.8,83,1235.897436,1.657875458,36.02206744
1.74329E+12,15:24.8,83,1294.505495,1.657875458,36.02206744
1.74329E+12,15:24.8,83,1375.091575,1.657875458,36.02206744
1.74329E+12,15:24.9,83,1452.014652,1.657875458,36.02206744
1.74329E+12,15:24.9,83,1516.483516,1.657875458,36.02206744
1.74329E+12,15:24.9,83,1555.311355,1.657875458,36.02206744
1.74329E+12,15:24.9,83,1581.684982,1.656410256,36.02206744
1.74329E+12,15:24.9,83,1613.919414,1.656410256,36.02206744
1.74329E+12,15:25.0,83,1646.153846,1.656410256,36.02206744
1.74329E+12,15:25.0,83,1660.07326,1.656410256,36.02206744
1.74329E+12,15:25.0,83,1652.747253,1.654945055,36.02206744
1.74329E+12,15:25.0,83,1656.410256,1.654945055,36.02206744
1.74329E+12,15:25.0,83,1643.223443,1.654945055,36.02206744
1.74329E+12,15:25.1,83,1607.326007,1.654945055,36.02206744
1.74329E+12,15:25.1,83,1560.43956,1.654945055,36.02206744
1.74329E+12,15:25.1,81,1497.435897,1.654945055,36.02206744
1.74329E+12,15:25.1,81,1452.747253,1.654945055,36.02206744
1.74329E+12,15:25.1,81,1431.501832,1.654945055,36.02206744
1.74329E+12,15:25.2,81,1412.454212,1.654945055,36.02206744
1.74329E+12,15:25.2,81,1400.732601,1.654945055,36.02206744
1.74329E+12,15:25.2,81,1391.208791,1.654945055,36.02206744
1.74329E+12,15:25.2,81,1375.824176,1.654945055,36.02206744
1.74329E+12,15:25.2,81,1361.172161,1.653479853,36.02206744
1.74329E+12,15:25.3,81,1350.18315,1.653479853,36.02206744
1.74329E+12,15:25.3,81,1326.007326,1.653479853,36.02206744
1.74329E+12,15:25.3,81,1287.912088,1.653479853,36.02206744
1.74329E+12,15:25.3,81,1259.340659,1.653479853,36.02206744
1.74329E+12,15:25.3,81,1241.025641,1.653479853,36.02206744
1.74329E+12,15:25.3,81,1217.582418,1.653479853,36.02206744
1.74329E+12,15:25.4,81,1215.384615,1.653479853,36.02206744
1.74329E+12,15:25.4,81,1206.593407,1.653479853,36.02206744
1.74329E+12,15:25.4,81,1188.278388,1.653479853,36.02206744
1.74329E+12,15:25.4,81,1191.208791,1.653479853,36.02206744
1.74329E+12,15:25.4,81,1200.732601,1.653479853,36.02206744
1.74329E+12,15:25.5,81,1213.186813,1.653479853,36.02206744
1.74329E+12,15:25.5,81,1202.930403,1.653479853,36.02206744
1.74329E+12,15:25.5,81,1192.673993,1.652014652,36.02206744
1.74329E+12,15:25.5,81,1191.941392,1.653479853,36.02206744
1.74329E+12,15:25.5,81,1216.117216,1.653479853,36.02206744
1.74329E+12,15:25.6,81,1275.457875,1.653479853,36.02206744
1.74329E+12,15:25.6,81,1355.311355,1.652014652,36.02206744
1.74329E+12,15:25.6,81,1437.362637,1.653479853,36.02206744
1.74329E+12,15:25.6,81,1509.157509,1.652014652,36.02206744
1.74329E+12,15:25.6,81,1569.96337,1.652014652,36.02206744
1.74329E+12,15:25.7,81,1613.186813,1.652014652,36.02206744
1.74329E+12,15:25.7,81,1642.490842,1.652014652,36.02206744
1.74329E+12,15:25.7,81,1654.212454,1.652014652,36.02206744
1.74329E+12,15:25.7,81,1652.014652,1.650549451,36.02206744
1.74329E+12,15:25.7,81,1632.967033,1.650549451,36.02206744
1.74329E+12,15:25.8,81,1613.186813,1.652014652,36.03206807
1.74329E+12,15:25.8,81,1589.010989,1.650549451,36.03206807
1.74329E+12,15:25.8,81,1538.461538,1.650549451,36.03206807
1.74329E+12,15:25.8,81,1484.249084,1.650549451,36.03206807
1.74329E+12,15:25.8,81,1449.81685,1.650549451,36.03206807
1.74329E+12,15:25.9,81,1426.373626,1.650549451,36.03206807
1.74329E+12,15:25.9,81,1399.267399,1.650549451,36.03206807
1.74329E+12,15:25.9,81,1375.824176,1.650549451,36.03206807
1.74329E+12,15:25.9,81,1364.102564,1.650549451,36.03206807
1.74329E+12,15:25.9,81,1364.835165,1.650549451,36.03206807
1.74329E+12,15:26.0,81,1358.241758,1.650549451,36.03206807
1.74329E+12,15:26.0,81,1342.857143,1.650549451,36.03206807
1.74329E+12,15:26.0,81,1328.205128,1.650549451,36.03206807
1.74329E+12,15:26.0,81,1307.692308,1.650549451,36.03206807
1.74329E+12,15:26.0,81,1287.179487,1.650549451,36.03206807
1.74329E+12,15:26.0,81,1276.190476,1.650549451,36.03206807
1.74329E+12,15:26.1,81,1260.805861,1.650549451,36.03206807
1.74329E+12,15:26.1,81,1244.688645,1.650549451,36.03206807
1.74329E+12,15:26.1,81,1233.699634,1.652014652,36.03206807
1.74329E+12,15:26.1,81,1235.897436,1.652014652,36.03206807
1.74329E+12,15:26.1,81,1226.373626,1.652014652,36.03206807
1.74329E+12,15:26.2,81,1205.860806,1.652014652,36.03206807
1.74329E+12,15:26.2,81,1191.941392,1.652014652,36.03206807
1.74329E+12,15:26.2,81,1189.74359,1.653479853,36.03206807
1.74329E+12,15:26.2,81,1197.802198,1.653479853,36.03206807
1.74329E+12,15:26.2,81,1217.582418,1.653479853,36.03206807
1.74329E+12,15:26.3,81,1263.736264,1.653479853,36.03206807
1.74329E+12,15:26.3,81,1347.252747,1.654945055,36.03206807
1.74329E+12,15:26.3,81,1449.81685,1.654945055,36.03206807
1.74329E+12,15:26.3,81,1564.835165,1.654945055,36.03206807
1.74329E+12,15:26.3,81,1649.81685,1.656410256,36.03206807
1.74329E+12,15:26.4,81,1692.307692,1.656410256,36.03206807
1.74329E+12,15:26.4,81,1726.739927,1.656410256,36.03206807
1.74329E+12,15:26.4,81,1755.311355,1.657875458,36.03206807
1.74329E+12,15:26.4,81,1760.43956,1.657875458,36.03206807
1.74329E+12,15:26.4,81,1756.043956,1.657875458,36.03206807
1.74329E+12,15:26.5,81,1743.589744,1.659340659,36.03206807
1.74329E+12,15:26.5,81,1720.14652,1.659340659,36.03206807
1.74329E+12,15:26.5,81,1671.794872,1.660805861,36.03206807
1.74329E+12,15:26.5,81,1620.512821,1.660805861,36.03206807
1.74329E+12,15:26.5,81,1563.369963,1.662271062,36.03206807
1.74329E+12,15:26.6,81,1514.285714,1.662271062,36.03206807
1.74329E+12,15:26.6,81,1478.388278,1.663736264,36.03206807
1.74329E+12,15:26.6,81,1451.282051,1.663736264,36.03206807
1.74329E+12,15:26.6,81,1429.304029,1.665201465,36.03206807
1.74329E+12,15:26.6,81,1423.443223,1.666666667,36.03206807
1.74329E+12,15:26.7,81,1424.175824,1.668131868,36.03206807
1.74329E+12,15:26.7,81,1411.721612,1.668131868,36.03206807
1.74329E+12,15:26.7,81,1398.534799,1.66959707,36.03206807
1.74329E+12,15:26.7,81,1390.47619,1.671062271,36.03206807
1.74329E+12,15:26.7,81,1372.161172,1.672527473,36.03206807
1.74329E+12,15:26.8,81,1349.450549,1.673992674,36.04206867
1.74329E+12,15:26.8,81,1323.809524,1.673992674,36.04206867
1.74329E+12,15:26.8,81,1307.692308,1.675457875,36.04206867
1.74329E+12,15:26.8,81,1293.772894,1.676923077,36.04206867
1.74329E+12,15:26.8,81,1279.120879,1.678388278,36.04206867
1.74329E+12,15:26.8,81,1263.003663,1.678388278,36.04206867
1.74329E+12,15:26.9,81,1241.758242,1.67985348,36.04206867
1.74329E+12,15:26.9,81,1216.849817,1.681318681,36.04206867
1.74329E+12,15:26.9,81,1206.593407,1.682783883,36.04206867
1.74329E+12,15:26.9,81,1224.908425,1.684249084,36.04206867
1.74329E+12,15:26.9,81,1293.772894,1.685714286,36.04206867
1.74329E+12,15:27.0,81,1414.652015,1.687179487,36.04206867
1.74329E+12,15:27.0,81,1574.358974,1.688644689,36.04206867
1.74329E+12,15:27.0,81,1717.216117,1.69010989,36.04206867
1.74329E+12,15:27.0,81,1805.860806,1.69010989,36.04206867
1.74329E+12,15:27.0,81,1867.399267,1.693040293,36.04206867
1.74329E+12,15:27.1,81,1925.274725,1.694505495,36.04206867
1.74329E+12,15:27.1,81,1976.556777,1.695970696,36.04206867
1.74329E+12,15:27.1,81,1999.267399,1.695970696,36.04206867
1.74329E+12,15:27.1,81,2004.395604,1.698901099,36.04206867
1.74329E+12,15:27.1,81,2005.128205,1.7003663,36.04206867
1.74329E+12,15:27.2,81,1994.139194,1.701831502,36.04206867
1.74329E+12,15:27.2,81,1950.915751,1.703296703,36.04206867
1.74329E+12,15:27.2,81,1892.307692,1.703296703,36.04206867
1.74329E+12,15:27.2,81,1826.373626,1.706227106,36.04206867
1.74329E+12,15:27.2,81,1754.578755,1.707692308,36.04206867
1.74329E+12,15:27.3,81,1695.970696,1.709157509,36.04206867
1.74329E+12,15:27.3,81,1654.212454,1.710622711,36.04206867
1.74329E+12,15:27.3,81,1620.512821,1.712087912,36.04206867
1.74329E+12,15:27.3,81,1591.208791,1.713553114,36.04206867
1.74329E+12,15:27.3,79,1575.824176,1.715018315,36.04206867
1.74329E+12,15:27.4,79,1559.70696,1.717948718,36.04206867
1.74329E+12,15:27.4,79,1528.937729,1.717948718,36.04206867
1.74329E+12,15:27.4,79,1481.318681,1.720879121,36.04206867
1.74329E+12,15:27.4,79,1428.571429,1.722344322,36.04206867
1.74329E+12,15:27.4,79,1376.556777,1.725274725,36.04206867
1.74329E+12,15:27.5,79,1333.333333,1.725274725,36.04206867
1.74329E+12,15:27.5,79,1310.622711,1.728205128,36.04206867
1.74329E+12,15:27.5,79,1277.655678,1.72967033,36.04206867
1.74329E+12,15:27.5,79,1256.410256,1.731135531,36.04206867
1.74329E+12,15:27.5,79,1253.479853,1.732600733,36.04206867
1.74329E+12,15:27.6,79,1249.81685,1.734065934,36.04206867
1.74329E+12,15:27.6,79,1229.304029,1.735531136,36.04206867
1.74329E+12,15:27.6,79,1210.25641,1.736996337,36.04206867
1.74329E+12,15:27.6,79,1216.849817,1.738461538,36.04206867
1.74329E+12,15:27.6,79,1264.468864,1.73992674,36.04206867
1.74329E+12,15:27.6,79,1378.021978,1.741391941,36.04206867
1.74329E+12,15:27.7,79,1550.915751,1.742857143,36.04206867
1.74329E+12,15:27.7,79,1723.076923,1.744322344,36.04206867
1.74329E+12,15:27.7,79,1854.945055,1.747252747,36.04206867
1.74329E+12,15:27.7,79,1944.322344,1.748717949,36.04206867
1.74329E+12,15:27.7,79,2000.732601,1.75018315,36.05206924
1.74329E+12,15:27.8,79,2033.699634,1.75018315,36.05206924
1.74329E+12,15:27.8,79,2047.619048,1.751648352,36.05206924
1.74329E+12,15:27.8,79,2043.223443,1.754578755,36.05206924
1.74329E+12,15:27.8,79,2014.652015,1.756043956,36.05206924
1.74329E+12,15:27.8,79,1980.952381,1.757509158,36.05206924
1.74329E+12,15:27.9,79,1925.274725,1.758974359,36.05206924
1.74329E+12,15:27.9,79,1834.432234,1.76043956,36.05206924
1.74329E+12,15:27.9,79,1737.728938,1.763369963,36.05206924
1.74329E+12,15:27.9,79,1653.479853,1.766300366,36.05206924
1.74329E+12,15:27.9,79,1591.208791,1.767765568,36.05206924
1.74329E+12,15:28.0,79,1550.915751,1.770695971,36.05206924
1.74329E+12,15:28.0,79,1514.285714,1.772161172,36.05206924
1.74329E+12,15:28.0,79,1478.388278,1.773626374,36.05206924
1.74329E+12,15:28.0,79,1458.608059,1.775091575,36.05206924
1.74329E+12,15:28.0,79,1427.838828,1.776556777,36.05206924
