RawTimestamp,LocalTime,HR_Direct,HR_Buffered,PPG,GSR,Temperature
1743367737212,16:48:57.212,-1,-1,0,3.75164835164835,26.4608428180218
1743367737232,16:48:57.232,-1,-1,0,3.75164835164835,26.4608428180218
1743367737251,16:48:57.251,-1,-1,0,1.5854791974195,26.4608428180218
1743367737271,16:48:57.271,-1,-1,0,1.5854791974195,26.4608428180218
1743367737290,16:48:57.290,-1,-1,0,1.5854791974195,26.4608428180218
1743367737310,16:48:57.310,-1,-1,0,1.5854791974195,26.4608428180218
1743367737329,16:48:57.329,-1,-1,0,1.5854791974195,26.4608428180218
1743367737349,16:48:57.349,-1,-1,0.732600732600733,1.53922732319945,26.4608428180218
1743367737368,16:48:57.368,-1,-1,0,1.53922732319945,26.4608428180218
1743367737388,16:48:57.388,-1,-1,0,1.53922732319945,26.4608428180218
1743367737407,16:48:57.407,-1,-1,0,1.53922732319945,26.4608428180218
1743367737427,16:48:57.427,-1,-1,0,1.53922732319945,26.4608428180218
1743367737446,16:48:57.446,-1,-1,0,1.54065934065934,26.4608428180218
1743367737466,16:48:57.466,-1,-1,0,1.54065934065934,26.4608428180218
1743367737485,16:48:57.485,-1,-1,0,1.54065934065934,26.4608428180218
1743367737505,16:48:57.505,-1,-1,0,1.54065934065934,26.4608428180218
1743367737524,16:48:57.524,-1,-1,0,1.54065934065934,26.4608428180218
1743367737544,16:48:57.544,-1,-1,0,1.53919413919414,26.4608428180218
1743367737563,16:48:57.563,-1,-1,0,1.53919413919414,26.4608428180218
1743367737583,16:48:57.583,-1,-1,0,1.53919413919414,26.4608428180218
1743367737602,16:48:57.602,-1,-1,0,1.53919413919414,26.4608428180218
1743367737622,16:48:57.622,-1,-1,0,1.53919413919414,26.4608428180218
1743367737641,16:48:57.641,-1,-1,0,1.53772893772894,26.4608428180218
1743367737661,16:48:57.661,-1,-1,0,1.53772893772894,26.4608428180218
1743367737680,16:48:57.680,-1,-1,0,1.53772893772894,26.4608428180218
1743367737700,16:48:57.700,-1,-1,0,1.53772893772894,26.4608428180218
1743367737719,16:48:57.719,-1,-1,0,1.53626373626374,26.4608428180218
1743367737739,16:48:57.739,-1,-1,0,1.53626373626374,26.4608428180218
1743367737758,16:48:57.758,-1,-1,0,1.53626373626374,26.4608428180218
1743367737778,16:48:57.778,-1,-1,0,1.53626373626374,26.4608428180218
1743367737797,16:48:57.797,-1,-1,0,1.53479853479853,26.4608428180218
1743367737817,16:48:57.817,-1,-1,0,1.53479853479853,26.4608428180218
1743367737836,16:48:57.836,-1,-1,0,1.53479853479853,26.4608428180218
1743367737856,16:48:57.856,-1,-1,0,1.53479853479853,26.4608428180218
1743367737875,16:48:57.875,-1,-1,0,1.53479853479853,26.4608428180218
1743367737895,16:48:57.895,-1,-1,0,1.53333333333333,26.4608428180218
1743367737914,16:48:57.914,-1,-1,0,1.53333333333333,26.4608428180218
1743367737934,16:48:57.934,-1,-1,0,1.53186813186813,26.4608428180218
1743367737953,16:48:57.953,-1,-1,0,1.53186813186813,26.4608428180218
1743367737973,16:48:57.973,-1,-1,0,1.53186813186813,26.4608428180218
1743367737992,16:48:57.992,-1,-1,0,1.53040293040293,26.4608428180218
1743367738012,16:48:58.012,-1,-1,0,1.53040293040293,26.4608428180218
1743367738031,16:48:58.031,-1,-1,0,1.53040293040293,26.4608428180218
1743367738051,16:48:58.051,-1,-1,0,1.52893772893773,26.4608428180218
1743367738070,16:48:58.070,-1,-1,0,1.52747252747253,26.4608428180218
1743367738090,16:48:58.090,-1,-1,0,1.52747252747253,26.4608428180218
1743367738109,16:48:58.109,-1,-1,0,1.52747252747253,26.4608428180218
1743367738129,16:48:58.129,-1,-1,0,1.52600732600733,33.3860915926052
1743367738148,16:48:58.148,-1,-1,0,1.52600732600733,33.3860915926052
1743367738168,16:48:58.168,-1,-1,0,1.52454212454212,33.3860915926052
1743367738187,16:48:58.187,-1,-1,0,1.52307692307692,33.3860915926052
1743367738207,16:48:58.207,-1,-1,0,1.52307692307692,33.3860915926052
1743367738226,16:48:58.226,-1,-1,0,1.52307692307692,33.3860915926052
1743367738246,16:48:58.246,-1,-1,0,1.52307692307692,33.3860915926052
1743367738265,16:48:58.265,-1,-1,0,1.52161172161172,33.3860915926052
1743367738285,16:48:58.285,-1,-1,0,1.52161172161172,33.3860915926052
1743367738304,16:48:58.304,-1,-1,0,1.52161172161172,33.3860915926052
1743367738324,16:48:58.324,-1,-1,0,1.52161172161172,33.3860915926052
1743367738343,16:48:58.343,-1,-1,0,1.52014652014652,33.3860915926052
1743367738363,16:48:58.363,-1,-1,0,1.52014652014652,33.3860915926052
1743367738382,16:48:58.382,-1,-1,0,1.51868131868132,33.3860915926052
1743367738402,16:48:58.402,-1,-1,0,1.51575091575092,33.3860915926052
1743367738421,16:48:58.421,-1,-1,0,1.51428571428571,33.3860915926052
1743367738441,16:48:58.441,-1,-1,0,1.51282051282051,33.3860915926052
1743367738460,16:48:58.460,-1,-1,0,1.51135531135531,33.3860915926052
1743367738480,16:48:58.480,-1,-1,0,1.50695970695971,33.3860915926052
1743367738499,16:48:58.499,-1,-1,0,1.50549450549451,33.3860915926052
1743367738519,16:48:58.519,-1,-1,0,1.5025641025641,33.3860915926052
1743367738538,16:48:58.538,-1,-1,0,1.5010989010989,33.3860915926052
1743367738558,16:48:58.558,-1,-1,0,1.4996336996337,33.3860915926052
1743367738577,16:48:58.577,-1,-1,0,1.4996336996337,33.3860915926052
1743367738597,16:48:58.597,-1,-1,0,1.4981684981685,33.3860915926052
1743367738616,16:48:58.616,-1,-1,0,1.4996336996337,33.3860915926052
1743367738636,16:48:58.636,-1,-1,0,1.4996336996337,33.3860915926052
1743367738655,16:48:58.655,-1,-1,0,1.4981684981685,33.3860915926052
1743367738675,16:48:58.675,-1,-1,0,1.4996336996337,33.3860915926052
1743367738694,16:48:58.694,-1,-1,10.2564102564103,1.4996336996337,33.3860915926052
1743367738714,16:48:58.714,-1,-1,306.227106227106,1.4996336996337,33.3860915926052
1743367738733,16:48:58.733,-1,-1,628.571428571429,1.4996336996337,33.3860915926052
1743367738753,16:48:58.753,-1,-1,865.201465201465,1.4996336996337,33.3860915926052
1743367738772,16:48:58.772,-1,-1,1005.86080586081,1.4996336996337,33.3860915926052
1743367738792,16:48:58.792,-1,-1,1073.26007326007,1.5010989010989,33.3860915926052
1743367738811,16:48:58.811,-1,-1,1099.6336996337,1.5025641025641,33.3860915926052
1743367738831,16:48:58.831,-1,-1,1106.95970695971,1.5025641025641,33.3860915926052
1743367738850,16:48:58.850,-1,-1,1116.48351648352,1.5025641025641,33.3860915926052
1743367738870,16:48:58.870,-1,-1,1117.94871794872,1.5025641025641,33.3860915926052
1743367738889,16:48:58.889,-1,-1,1130.40293040293,1.50549450549451,33.3860915926052
1743367738909,16:48:58.909,-1,-1,1160.43956043956,1.50549450549451,33.3860915926052
1743367738928,16:48:58.928,-1,-1,1199.2673992674,1.5040293040293,33.3860915926052
1743367738948,16:48:58.948,-1,-1,1260.07326007326,1.50549450549451,33.3860915926052
1743367738967,16:48:58.967,-1,-1,1317.21611721612,1.50549450549451,33.3860915926052
1743367738987,16:48:58.987,-1,-1,1361.90476190476,1.50549450549451,33.3860915926052
1743367739006,16:48:59.006,-1,-1,1393.40659340659,1.50549450549451,33.3860915926052
1743367739026,16:48:59.026,-1,-1,1408.05860805861,1.50695970695971,33.3860915926052
1743367739045,16:48:59.045,-1,-1,1412.45421245421,1.50695970695971,33.3860915926052
1743367739065,16:48:59.065,-1,-1,1411.72161172161,1.50695970695971,33.3860915926052
1743367739084,16:48:59.084,-1,-1,1406.59340659341,1.50695970695971,33.3860915926052
1743367739104,16:48:59.104,-1,-1,1399.2673992674,1.50842490842491,33.3860915926052
1743367739123,16:48:59.123,-1,-1,1401.4652014652,1.50842490842491,33.3910949751735
1743367739143,16:48:59.143,-1,-1,1381.68498168498,1.50842490842491,33.3910949751735
1743367739162,16:48:59.162,-1,-1,1345.05494505494,1.50842490842491,33.3910949751735
1743367739182,16:48:59.182,-1,-1,1306.95970695971,1.50842490842491,33.3910949751735
1743367739201,16:48:59.201,-1,-1,1289.37728937729,1.50842490842491,33.3910949751735
1743367739221,16:48:59.221,-1,-1,1284.98168498168,1.50842490842491,33.3910949751735
1743367739240,16:48:59.240,-1,-1,1288.64468864469,1.50842490842491,33.3910949751735
1743367739260,16:48:59.260,-1,-1,1304.0293040293,1.50842490842491,33.3910949751735
1743367739279,16:48:59.279,-1,-1,1324.54212454212,1.50842490842491,33.3910949751735
1743367739299,16:48:59.299,-1,-1,1331.86813186813,1.50842490842491,33.3910949751735
1743367739318,16:48:59.318,-1,-1,1315.01831501831,1.50842490842491,33.3910949751735
1743367739338,16:48:59.338,-1,-1,1297.4358974359,1.50695970695971,33.3910949751735
1743367739357,16:48:59.357,-1,-1,1276.19047619048,1.50695970695971,33.3910949751735
1743367739377,16:48:59.377,-1,-1,1244.68864468864,1.50695970695971,33.3910949751735
1743367739396,16:48:59.396,-1,-1,1213.18681318681,1.50695970695971,33.3910949751735
1743367739416,16:48:59.416,-1,-1,1204.3956043956,1.50695970695971,33.3910949751735
1743367739435,16:48:59.435,-1,-1,1204.3956043956,1.50695970695971,33.3910949751735
1743367739455,16:48:59.455,-1,-1,1205.12820512821,1.50549450549451,33.3910949751735
1743367739474,16:48:59.474,-1,-1,1194.13919413919,1.50549450549451,33.3910949751735
1743367739494,16:48:59.494,-1,-1,1171.42857142857,1.50549450549451,33.3910949751735
1743367739513,16:48:59.513,-1,-1,1154.57875457875,1.50549450549451,33.3910949751735
1743367739533,16:48:59.533,-1,-1,1148.71794871795,1.50549450549451,33.3910949751735
1743367739552,16:48:59.552,-1,-1,1153.11355311355,1.50549450549451,33.3910949751735
1743367739572,16:48:59.572,-1,-1,1167.03296703297,1.5040293040293,33.3910949751735
1743367739591,16:48:59.591,-1,-1,1179.48717948718,1.5040293040293,33.3910949751735
1743367739611,16:48:59.611,-1,-1,1181.68498168498,1.5040293040293,33.3910949751735
1743367739630,16:48:59.630,-1,-1,1176.55677655678,1.5040293040293,33.3910949751735
1743367739650,16:48:59.650,-1,-1,1181.68498168498,1.5040293040293,33.3910949751735
1743367739669,16:48:59.669,-1,-1,1211.72161172161,1.5025641025641,33.3910949751735
1743367739689,16:48:59.689,-1,-1,1254.94505494505,1.5040293040293,33.3910949751735
1743367739708,16:48:59.708,-1,-1,1325.27472527473,1.5025641025641,33.3910949751735
1743367739728,16:48:59.728,-1,-1,1387.54578754579,1.5025641025641,33.3910949751735
1743367739747,16:48:59.747,-1,-1,1424.17582417582,1.5025641025641,33.3910949751735
1743367739767,16:48:59.767,-1,-1,1450.54945054945,1.5010989010989,33.3910949751735
1743367739786,16:48:59.786,-1,-1,1479.85347985348,1.5010989010989,33.3910949751735
1743367739806,16:48:59.806,-1,-1,1487.17948717949,1.5010989010989,33.3910949751735
1743367739825,16:48:59.825,-1,-1,1480.58608058608,1.4996336996337,33.3910949751735
1743367739845,16:48:59.845,-1,-1,1476.19047619048,1.4996336996337,33.3910949751735
1743367739864,16:48:59.864,-1,-1,1455.67765567766,1.4996336996337,33.3910949751735
1743367739884,16:48:59.884,-1,-1,1419.78021978022,1.4981684981685,33.3910949751735
1743367739903,16:48:59.903,-1,-1,1379.48717948718,1.4981684981685,33.3910949751735
1743367739923,16:48:59.923,-1,-1,1354.57875457875,1.4981684981685,33.3910949751735
1743367739942,16:48:59.942,-1,-1,1331.86813186813,1.4981684981685,33.3910949751735
1743367739962,16:48:59.962,-1,-1,1316.48351648352,1.4981684981685,33.3910949751735
1743367739981,16:48:59.981,-1,-1,1325.27472527473,1.4967032967033,33.3910949751735
1743367740001,16:49:00.001,-1,-1,1337.72893772894,1.4967032967033,33.3910949751735
1743367740020,16:49:00.020,-1,-1,1339.92673992674,1.4967032967033,33.3910949751735
1743367740040,16:49:00.040,-1,-1,1333.33333333333,1.4967032967033,33.3910949751735
1743367740059,16:49:00.059,-1,-1,1320.14652014652,1.49523809523809,33.3910949751735
1743367740079,16:49:00.079,-1,-1,1312.82051282051,1.49523809523809,33.3910949751735
1743367740098,16:49:00.098,-1,-1,1303.2967032967,1.49523809523809,33.3910949751735
1743367740118,16:49:00.118,-1,-1,1290.10989010989,1.49523809523809,33.396098351921
1743367740137,16:49:00.137,-1,-1,1277.65567765568,1.49523809523809,33.396098351921
1743367740157,16:49:00.157,-1,-1,1276.92307692308,1.49523809523809,33.396098351921
1743367740176,16:49:00.176,-1,-1,1273.26007326007,1.49377289377289,33.396098351921
1743367740196,16:49:00.196,-1,-1,1263.00366300366,1.49377289377289,33.396098351921
1743367740215,16:49:00.215,-1,-1,1252.74725274725,1.49377289377289,33.396098351921
1743367740235,16:49:00.235,-1,-1,1244.68864468864,1.49377289377289,33.396098351921
1743367740254,16:49:00.254,-1,-1,1233.69963369963,1.49230769230769,33.396098351921
1743367740274,16:49:00.274,-1,-1,1223.44322344322,1.49377289377289,33.396098351921
1743367740293,16:49:00.293,-1,-1,1218.31501831502,1.49377289377289,33.396098351921
1743367740313,16:49:00.313,-1,-1,1217.58241758242,1.49230769230769,33.396098351921
1743367740332,16:49:00.332,-1,-1,1217.58241758242,1.49230769230769,33.396098351921
1743367740352,16:49:00.352,-1,-1,1213.18681318681,1.49230769230769,33.396098351921
1743367740371,16:49:00.371,-1,-1,1190.47619047619,1.49230769230769,33.396098351921
1743367740391,16:49:00.391,-1,-1,1176.55677655678,1.49230769230769,33.396098351921
1743367740410,16:49:00.410,-1,-1,1187.54578754579,1.49230769230769,33.396098351921
1743367740430,16:49:00.430,-1,-1,1205.12820512821,1.49084249084249,33.396098351921
1743367740449,16:49:00.449,-1,-1,1216.11721611722,1.49084249084249,33.396098351921
1743367740469,16:49:00.469,-1,-1,1226.37362637363,1.49084249084249,33.396098351921
1743367740488,16:49:00.488,-1,-1,1266.66666666667,1.49084249084249,33.396098351921
1743367740508,16:49:00.508,-1,-1,1323.07692307692,1.49084249084249,33.396098351921
1743367740527,16:49:00.527,-1,-1,1368.49816849817,1.49084249084249,33.396098351921
1743367740547,16:49:00.547,-1,-1,1405.86080586081,1.49084249084249,33.396098351921
1743367740566,16:49:00.566,-1,-1,1431.50183150183,1.49084249084249,33.396098351921
1743367740586,16:49:00.586,-1,-1,1457.87545787546,1.48937728937729,33.396098351921
1743367740605,16:49:00.605,-1,-1,1471.06227106227,1.48937728937729,33.396098351921
1743367740625,16:49:00.625,-1,-1,1461.53846153846,1.48937728937729,33.396098351921
1743367740644,16:49:00.644,-1,-1,1470.32967032967,1.48937728937729,33.396098351921
1743367740664,16:49:00.664,-1,-1,1473.26007326007,1.48937728937729,33.396098351921
1743367740683,16:49:00.683,-1,-1,1471.79487179487,1.48937728937729,33.396098351921
1743367740703,16:49:00.703,-1,-1,1446.88644688645,1.48791208791209,33.396098351921
1743367740722,16:49:00.722,-1,-1,1414.65201465201,1.48791208791209,33.396098351921
1743367740742,16:49:00.742,-1,-1,1394.13919413919,1.48791208791209,33.396098351921
1743367740761,16:49:00.761,-1,-1,1374.35897435897,1.48791208791209,33.396098351921
1743367740781,16:49:00.781,-1,-1,1366.30036630037,1.48791208791209,33.396098351921
1743367740800,16:49:00.800,-1,-1,1358.97435897436,1.48644688644689,33.396098351921
1743367740820,16:49:00.820,-1,-1,1358.24175824176,1.48644688644689,33.396098351921
1743367740839,16:49:00.839,-1,-1,1358.97435897436,1.48644688644689,33.396098351921
1743367740859,16:49:00.859,-1,-1,1351.64835164835,1.48644688644689,33.396098351921
1743367740878,16:49:00.878,-1,-1,1352.38095238095,1.48644688644689,33.396098351921
1743367740898,16:49:00.898,-1,-1,1346.52014652015,1.48498168498168,33.396098351921
1743367740917,16:49:00.917,-1,-1,1336.26373626374,1.48498168498168,33.396098351921
1743367740937,16:49:00.937,-1,-1,1317.94871794872,1.48498168498168,33.396098351921
1743367740956,16:49:00.956,-1,-1,1293.04029304029,1.48498168498168,33.396098351921
1743367740976,16:49:00.976,-1,-1,1282.05128205128,1.48498168498168,33.396098351921
1743367740995,16:49:00.995,-1,-1,1280.58608058608,1.48498168498168,33.396098351921
1743367741015,16:49:01.015,-1,-1,1267.39926739927,1.48498168498168,33.396098351921
1743367741034,16:49:01.034,-1,-1,1268.86446886447,1.48351648351648,33.396098351921
1743367741054,16:49:01.054,-1,-1,1267.39926739927,1.48351648351648,33.396098351921
1743367741073,16:49:01.073,-1,-1,1254.21245421245,1.48351648351648,33.396098351921
1743367741093,16:49:01.093,-1,-1,1253.47985347985,1.48351648351648,33.396098351921
1743367741112,16:49:01.112,-1,-1,1248.35164835165,1.48351648351648,33.4061050879536
1743367741132,16:49:01.132,-1,-1,1246.15384615385,1.48351648351648,33.4061050879536
1743367741151,16:49:01.151,-1,-1,1250.54945054945,1.48205128205128,33.4061050879536
1743367741171,16:49:01.171,-1,-1,1248.35164835165,1.48205128205128,33.4061050879536
1743367741190,16:49:01.190,-1,-1,1249.08424908425,1.48205128205128,33.4061050879536
1743367741210,16:49:01.210,-1,-1,1236.63003663004,1.48205128205128,33.4061050879536
1743367741229,16:49:01.229,-1,-1,1227.83882783883,1.48205128205128,33.4061050879536
1743367741249,16:49:01.249,-1,-1,1230.76923076923,1.48058608058608,33.4061050879536
1743367741268,16:49:01.268,-1,-1,1214.65201465201,1.48058608058608,33.4061050879536
1743367741288,16:49:01.288,-1,-1,1198.5347985348,1.48058608058608,33.4061050879536
1743367741307,16:49:01.307,-1,-1,1201.4652014652,1.48058608058608,33.4061050879536
1743367741327,16:49:01.327,-1,-1,1231.50183150183,1.47912087912088,33.4061050879536
1743367741346,16:49:01.346,-1,-1,1290.84249084249,1.47912087912088,33.4061050879536
1743367741366,16:49:01.366,-1,-1,1357.50915750916,1.47912087912088,33.4061050879536
1743367741385,16:49:01.385,-1,-1,1410.25641025641,1.47912087912088,33.4061050879536
1743367741405,16:49:01.405,-1,-1,1446.88644688645,1.47912087912088,33.4061050879536
1743367741424,16:49:01.424,-1,-1,1465.93406593407,1.47765567765568,33.4061050879536
1743367741444,16:49:01.444,-1,-1,1479.12087912088,1.47765567765568,33.4061050879536
1743367741463,16:49:01.463,-1,-1,1476.92307692308,1.47765567765568,33.4061050879536
1743367741483,16:49:01.483,-1,-1,1481.31868131868,1.47765567765568,33.4061050879536
1743367741502,16:49:01.502,-1,-1,1483.51648351648,1.47619047619048,33.4061050879536
1743367741522,16:49:01.522,-1,-1,1468.13186813187,1.47619047619048,33.4061050879536
1743367741541,16:49:01.541,-1,-1,1458.60805860806,1.47619047619048,33.4061050879536
1743367741561,16:49:01.561,-1,-1,1435.89743589744,1.47619047619048,33.4061050879536
1743367741580,16:49:01.580,-1,-1,1409.52380952381,1.47619047619048,33.4061050879536
1743367741600,16:49:01.600,-1,-1,1391.94139194139,1.47472527472527,33.4061050879536
1743367741619,16:49:01.619,-1,-1,1390.47619047619,1.47472527472527,33.4061050879536
1743367741639,16:49:01.639,-1,-1,1391.20879120879,1.47472527472527,33.4061050879536
1743367741658,16:49:01.658,-1,-1,1384.61538461538,1.47472527472527,33.4061050879536
1743367741678,16:49:01.678,-1,-1,1380.95238095238,1.47472527472527,33.4061050879536
1743367741697,16:49:01.697,-1,-1,1383.15018315018,1.47472527472527,33.4061050879536
1743367741717,16:49:01.717,-1,-1,1368.49816849817,1.47326007326007,33.4061050879536
1743367741736,16:49:01.736,-1,-1,1356.04395604396,1.47326007326007,33.4061050879536
1743367741756,16:49:01.756,-1,-1,1333.33333333333,1.47326007326007,33.4061050879536
1743367741775,16:49:01.775,-1,-1,1317.21611721612,1.47326007326007,33.4061050879536
1743367741795,16:49:01.795,-1,-1,1317.94871794872,1.47326007326007,33.4061050879536
1743367741814,16:49:01.814,-1,-1,1317.21611721612,1.47179487179487,33.4061050879536
1743367741834,16:49:01.834,-1,-1,1314.28571428571,1.47179487179487,33.4061050879536
1743367741853,16:49:01.853,-1,-1,1306.95970695971,1.47032967032967,33.4061050879536
1743367741873,16:49:01.873,-1,-1,1295.2380952381,1.47179487179487,33.4061050879536
1743367741892,16:49:01.892,-1,-1,1282.05128205128,1.47179487179487,33.4061050879536
1743367741912,16:49:01.912,-1,-1,1270.32967032967,1.47032967032967,33.4061050879536
1743367741931,16:49:01.931,-1,-1,1259.34065934066,1.47032967032967,33.4061050879536
1743367741951,16:49:01.951,-1,-1,1229.30402930403,1.47032967032967,33.4061050879536
1743367741970,16:49:01.970,-1,-1,1220.51282051282,1.47032967032967,33.4061050879536
1743367741990,16:49:01.990,-1,-1,1224.17582417582,1.47032967032967,33.4061050879536
1743367742009,16:49:02.009,-1,-1,1232.96703296703,1.47032967032967,33.4061050879536
1743367742029,16:49:02.029,-1,-1,1234.43223443223,1.46886446886447,33.4061050879536
1743367742048,16:49:02.048,-1,-1,1224.90842490842,1.46886446886447,33.4061050879536
1743367742068,16:49:02.068,-1,-1,1226.37362637363,1.46886446886447,33.4061050879536
1743367742087,16:49:02.087,-1,-1,1228.57142857143,1.46886446886447,33.4061050879536
1743367742107,16:49:02.107,-1,-1,1224.17582417582,1.46886446886447,33.396098351921
1743367742126,16:49:02.126,-1,-1,1224.17582417582,1.46886446886447,33.396098351921
1743367742146,16:49:02.146,-1,-1,1214.65201465201,1.46739926739927,33.396098351921
1743367742165,16:49:02.165,-1,-1,1220.51282051282,1.46739926739927,33.396098351921
1743367742185,16:49:02.185,-1,-1,1232.96703296703,1.46739926739927,33.396098351921
1743367742204,16:49:02.204,-1,-1,1257.14285714286,1.46739926739927,33.396098351921
1743367742224,16:49:02.224,-1,-1,1304.0293040293,1.46739926739927,33.396098351921
1743367742243,16:49:02.243,-1,-1,1345.78754578755,1.46739926739927,33.396098351921
1743367742263,16:49:02.263,-1,-1,1372.89377289377,1.46739926739927,33.396098351921
1743367742282,16:49:02.282,-1,-1,1405.86080586081,1.46739926739927,33.396098351921
1743367742302,16:49:02.302,-1,-1,1438.09523809524,1.46593406593407,33.396098351921
1743367742321,16:49:02.321,-1,-1,1460.80586080586,1.46739926739927,33.396098351921
1743367742341,16:49:02.341,-1,-1,1457.87545787546,1.46593406593407,33.396098351921
1743367742360,16:49:02.360,-1,-1,1455.67765567766,1.46593406593407,33.396098351921
1743367742380,16:49:02.380,-1,-1,1446.15384615385,1.46593406593407,33.396098351921
1743367742399,16:49:02.399,-1,-1,1428.57142857143,1.46446886446886,33.396098351921
1743367742419,16:49:02.419,-1,-1,1414.65201465201,1.46446886446886,33.396098351921
1743367742438,16:49:02.438,-1,-1,1384.61538461538,1.46446886446886,33.396098351921
1743367742458,16:49:02.458,-1,-1,1359.70695970696,1.46446886446886,33.396098351921
1743367742477,16:49:02.477,-1,-1,1345.78754578755,1.46446886446886,33.396098351921
1743367742497,16:49:02.497,-1,-1,1338.46153846154,1.46300366300366,33.396098351921
1743367742516,16:49:02.516,-1,-1,1339.92673992674,1.46300366300366,33.396098351921
1743367742536,16:49:02.536,-1,-1,1351.64835164835,1.46300366300366,33.396098351921
1743367742555,16:49:02.555,-1,-1,1352.38095238095,1.46300366300366,33.396098351921
1743367742575,16:49:02.575,-1,-1,1346.52014652015,1.46153846153846,33.396098351921
1743367742594,16:49:02.594,-1,-1,1334.06593406593,1.46153846153846,33.396098351921
1743367742614,16:49:02.614,-1,-1,1317.94871794872,1.46153846153846,33.396098351921
1743367742633,16:49:02.633,-1,-1,1298.1684981685,1.46153846153846,33.396098351921
1743367742653,16:49:02.653,-1,-1,1288.64468864469,1.46153846153846,33.396098351921
1743367742672,16:49:02.672,-1,-1,1287.17948717949,1.46153846153846,33.396098351921
1743367742692,16:49:02.692,-1,-1,1284.24908424908,1.46153846153846,33.396098351921
1743367742711,16:49:02.711,-1,-1,1291.57509157509,1.46007326007326,33.396098351921
1743367742731,16:49:02.731,-1,-1,1292.30769230769,1.46007326007326,33.396098351921
1743367742750,16:49:02.750,-1,-1,1287.17948717949,1.46007326007326,33.396098351921
1743367742770,16:49:02.770,-1,-1,1281.31868131868,1.46007326007326,33.396098351921
1743367742789,16:49:02.789,-1,-1,1268.86446886447,1.46007326007326,33.396098351921
1743367742809,16:49:02.809,-1,-1,1255.67765567766,1.46007326007326,33.396098351921
1743367742828,16:49:02.828,-1,-1,1233.69963369963,1.46007326007326,33.396098351921
1743367742848,16:49:02.848,-1,-1,1218.31501831502,1.45860805860806,33.396098351921
1743367742867,16:49:02.867,-1,-1,1203.663003663,1.45860805860806,33.396098351921
1743367742887,16:49:02.887,-1,-1,1208.79120879121,1.45860805860806,33.396098351921
1743367742906,16:49:02.906,-1,-1,1219.04761904762,1.45860805860806,33.396098351921
1743367742926,16:49:02.926,-1,-1,1230.03663003663,1.45860805860806,33.396098351921
1743367742945,16:49:02.945,-1,-1,1239.56043956044,1.45860805860806,33.396098351921
1743367742965,16:49:02.965,-1,-1,1252.01465201465,1.45860805860806,33.396098351921
1743367742984,16:49:02.984,-1,-1,1260.07326007326,1.45860805860806,33.396098351921
1743367743004,16:49:03.004,-1,-1,1290.10989010989,1.45860805860806,33.396098351921
1743367743023,16:49:03.023,-1,-1,1331.13553113553,1.45860805860806,33.396098351921
1743367743043,16:49:03.043,-1,-1,1367.03296703297,1.45860805860806,33.396098351921
1743367743062,16:49:03.062,-1,-1,1383.88278388278,1.45860805860806,33.396098351921
1743367743082,16:49:03.082,-1,-1,1392.67399267399,1.45860805860806,33.396098351921
1743367743101,16:49:03.101,-1,-1,1415.38461538462,1.45860805860806,33.4011017228477
1743367743121,16:49:03.121,-1,-1,1430.76923076923,1.45714285714286,33.4011017228477
1743367743140,16:49:03.140,-1,-1,1433.69963369963,1.45714285714286,33.4011017228477
1743367743160,16:49:03.160,-1,-1,1440.29304029304,1.45714285714286,33.4011017228477
1743367743179,16:49:03.179,-1,-1,1431.50183150183,1.45714285714286,33.4011017228477
1743367743199,16:49:03.199,-1,-1,1413.18681318681,1.45714285714286,33.4011017228477
1743367743218,16:49:03.218,-1,-1,1386.81318681319,1.45714285714286,33.4011017228477
1743367743238,16:49:03.238,-1,-1,1370.69597069597,1.45714285714286,33.4011017228477
1743367743257,16:49:03.257,-1,-1,1358.24175824176,1.45567765567766,33.4011017228477
1743367743277,16:49:03.277,-1,-1,1342.12454212454,1.45567765567766,33.4011017228477
1743367743296,16:49:03.296,-1,-1,1334.06593406593,1.45567765567766,33.4011017228477
1743367743316,16:49:03.316,-1,-1,1343.58974358974,1.45567765567766,33.4011017228477
1743367743335,16:49:03.335,-1,-1,1342.85714285714,1.45567765567766,33.4011017228477
1743367743355,16:49:03.355,-1,-1,1330.40293040293,1.45567765567766,33.4011017228477
1743367743374,16:49:03.374,-1,-1,1335.53113553114,1.45567765567766,33.4011017228477
1743367743394,16:49:03.394,-1,-1,1334.79853479853,1.45567765567766,33.4011017228477
1743367743413,16:49:03.413,-1,-1,1331.13553113553,1.45567765567766,33.4011017228477
1743367743433,16:49:03.433,-1,-1,1330.40293040293,1.45421245421245,33.4011017228477
1743367743452,16:49:03.452,-1,-1,1324.54212454212,1.45421245421245,33.4011017228477
1743367743472,16:49:03.472,-1,-1,1312.82051282051,1.45421245421245,33.4011017228477
1743367743491,16:49:03.491,-1,-1,1302.5641025641,1.45421245421245,33.4011017228477
1743367743511,16:49:03.511,-1,-1,1286.44688644689,1.45567765567766,33.4011017228477
1743367743530,16:49:03.530,-1,-1,1273.99267399267,1.45421245421245,33.4011017228477
1743367743550,16:49:03.550,-1,-1,1268.86446886447,1.45421245421245,33.4011017228477
1743367743569,16:49:03.569,-1,-1,1270.32967032967,1.45421245421245,33.4011017228477
1743367743589,16:49:03.589,-1,-1,1263.00366300366,1.45274725274725,33.4011017228477
1743367743608,16:49:03.608,-1,-1,1252.01465201465,1.45274725274725,33.4011017228477
1743367743628,16:49:03.628,-1,-1,1252.74725274725,1.45421245421245,33.4011017228477
1743367743647,16:49:03.647,-1,-1,1245.42124542125,1.45421245421245,33.4011017228477
1743367743667,16:49:03.667,-1,-1,1236.63003663004,1.45274725274725,33.4011017228477
1743367743686,16:49:03.686,-1,-1,1237.36263736264,1.45274725274725,33.4011017228477
1743367743706,16:49:03.706,-1,-1,1235.16483516484,1.45274725274725,33.4011017228477
1743367743725,16:49:03.725,-1,-1,1228.57142857143,1.45274725274725,33.4011017228477
1743367743745,16:49:03.745,-1,-1,1232.96703296703,1.45274725274725,33.4011017228477
1743367743764,16:49:03.764,-1,-1,1241.02564102564,1.45274725274725,33.4011017228477
1743367743784,16:49:03.784,-1,-1,1277.65567765568,1.45274725274725,33.4011017228477
1743367743803,16:49:03.803,-1,-1,1322.34432234432,1.45128205128205,33.4011017228477
1743367743823,16:49:03.823,-1,-1,1372.16117216117,1.45274725274725,33.4011017228477
1743367743842,16:49:03.842,-1,-1,1416.84981684982,1.45274725274725,33.4011017228477
1743367743862,16:49:03.862,-1,-1,1451.28205128205,1.45128205128205,33.4011017228477
1743367743881,16:49:03.881,-1,-1,1471.79487179487,1.45128205128205,33.4011017228477
1743367743901,16:49:03.901,-1,-1,1486.44688644689,1.45274725274725,33.4011017228477
1743367743920,16:49:03.920,-1,-1,1485.71428571429,1.45128205128205,33.4011017228477
1743367743940,16:49:03.940,-1,-1,1490.84249084249,1.45128205128205,33.4011017228477
1743367743959,16:49:03.959,-1,-1,1498.9010989011,1.45128205128205,33.4011017228477
1743367743979,16:49:03.979,-1,-1,1490.84249084249,1.45128205128205,33.4011017228477
1743367743998,16:49:03.998,-1,-1,1469.59706959707,1.44981684981685,33.4011017228477
1743367744018,16:49:04.018,-1,-1,1443.95604395604,1.45128205128205,33.4011017228477
1743367744037,16:49:04.037,-1,-1,1435.16483516484,1.45128205128205,33.4011017228477
1743367744057,16:49:04.057,-1,-1,1431.50183150183,1.44981684981685,33.4011017228477
1743367744076,16:49:04.076,-1,-1,1438.09523809524,1.44981684981685,33.4011017228477
1743367744096,16:49:04.096,-1,-1,1435.16483516484,1.45128205128205,33.4111084472388
1743367744115,16:49:04.115,-1,-1,1436.63003663004,1.44981684981685,33.4111084472388
1743367744135,16:49:04.135,-1,-1,1438.09523809524,1.44981684981685,33.4111084472388
1743367744154,16:49:04.154,-1,-1,1432.96703296703,1.44981684981685,33.4111084472388
1743367744174,16:49:04.174,-1,-1,1418.31501831502,1.44981684981685,33.4111084472388
1743367744193,16:49:04.193,-1,-1,1396.336996337,1.44981684981685,33.4111084472388
1743367744213,16:49:04.213,-1,-1,1375.09157509157,1.44981684981685,33.4111084472388
1743367744232,16:49:04.232,-1,-1,1348.71794871795,1.44835164835165,33.4111084472388
1743367744252,16:49:04.252,-1,-1,1337.72893772894,1.44835164835165,33.4111084472388
1743367744271,16:49:04.271,-1,-1,1338.46153846154,1.44835164835165,33.4111084472388
1743367744291,16:49:04.291,-1,-1,1338.46153846154,1.44835164835165,33.4111084472388
1743367744310,16:49:04.310,-1,-1,1326.00732600733,1.44835164835165,33.4111084472388
1743367744330,16:49:04.330,-1,-1,1319.41391941392,1.44835164835165,33.4111084472388
1743367744349,16:49:04.349,-1,-1,1302.5641025641,1.44835164835165,33.4111084472388
1743367744369,16:49:04.369,-1,-1,1289.37728937729,1.44688644688645,33.4111084472388
1743367744388,16:49:04.388,-1,-1,1282.78388278388,1.44688644688645,33.4111084472388
1743367744408,16:49:04.408,-1,-1,1290.84249084249,1.44835164835165,33.4111084472388
1743367744427,16:49:04.427,-1,-1,1304.0293040293,1.44835164835165,33.4111084472388
1743367744447,16:49:04.447,-1,-1,1306.95970695971,1.44688644688645,33.4111084472388
1743367744466,16:49:04.466,-1,-1,1308.42490842491,1.44688644688645,33.4111084472388
1743367744486,16:49:04.486,-1,-1,1295.9706959707,1.44688644688645,33.4111084472388
1743367744505,16:49:04.505,-1,-1,1292.30769230769,1.44542124542125,33.4111084472388
1743367744525,16:49:04.525,-1,-1,1294.50549450549,1.44688644688645,33.4111084472388
1743367744544,16:49:04.544,-1,-1,1290.84249084249,1.44688644688645,33.4111084472388
1743367744564,16:49:04.564,-1,-1,1271.79487179487,1.44542124542125,33.4111084472388
1743367744583,16:49:04.583,-1,-1,1260.07326007326,1.44688644688645,33.4111084472388
1743367744603,16:49:04.603,-1,-1,1254.94505494505,1.44542124542125,33.4111084472388
1743367744622,16:49:04.622,-1,-1,1252.01465201465,1.44688644688645,33.4111084472388
1743367744642,16:49:04.642,-1,-1,1269.59706959707,1.44542124542125,33.4111084472388
1743367744661,16:49:04.661,-1,-1,1305.49450549451,1.44542124542125,33.4111084472388
1743367744681,16:49:04.681,-1,-1,1364.10256410256,1.44542124542125,33.4111084472388
1743367744700,16:49:04.700,-1,-1,1421.24542124542,1.44542124542125,33.4111084472388
1743367744720,16:49:04.720,-1,-1,1469.59706959707,1.44542124542125,33.4111084472388
1743367744739,16:49:04.739,-1,-1,1506.95970695971,1.44542124542125,33.4111084472388
1743367744759,16:49:04.759,-1,-1,1540.65934065934,1.44542124542125,33.4111084472388
1743367744778,16:49:04.778,-1,-1,1558.24175824176,1.44542124542125,33.4111084472388
1743367744798,16:49:04.798,-1,-1,1559.70695970696,1.44395604395604,33.4111084472388
1743367744817,16:49:04.817,-1,-1,1571.42857142857,1.44395604395604,33.4111084472388
1743367744837,16:49:04.837,-1,-1,1597.8021978022,1.44395604395604,33.4111084472388
1743367744856,16:49:04.856,-1,-1,1623.44322344322,1.44395604395604,33.4111084472388
1743367744876,16:49:04.876,-1,-1,1625.64102564103,1.44395604395604,33.4111084472388
1743367744895,16:49:04.895,-1,-1,1613.91941391941,1.44395604395604,33.4111084472388
1743367744915,16:49:04.915,-1,-1,1588.27838827839,1.44395604395604,33.4111084472388
1743367744934,16:49:04.934,-1,-1,1558.24175824176,1.44395604395604,33.4111084472388
1743367744954,16:49:04.954,-1,-1,1538.46153846154,1.44249084249084,33.4111084472388
1743367744973,16:49:04.973,-1,-1,1512.08791208791,1.44249084249084,33.4111084472388
1743367744993,16:49:04.993,-1,-1,1490.84249084249,1.44249084249084,33.4111084472388
1743367745012,16:49:05.012,-1,-1,1484.98168498168,1.44249084249084,33.4111084472388
1743367745032,16:49:05.032,-1,-1,1492.30769230769,1.44249084249084,33.4111084472388
1743367745051,16:49:05.051,-1,-1,1501.8315018315,1.44249084249084,33.4111084472388
1743367745071,16:49:05.071,-1,-1,1492.30769230769,1.44249084249084,33.4111084472388
1743367745090,16:49:05.090,-1,-1,1480.58608058608,1.44249084249084,33.4211151483469
1743367745110,16:49:05.110,-1,-1,1458.60805860806,1.44249084249084,33.4211151483469
1743367745129,16:49:05.129,-1,-1,1446.15384615385,1.44249084249084,33.4211151483469
1743367745149,16:49:05.149,-1,-1,1431.50183150183,1.44249084249084,33.4211151483469
1743367745168,16:49:05.168,-1,-1,1413.91941391941,1.44102564102564,33.4211151483469
1743367745188,16:49:05.188,-1,-1,1400,1.44249084249084,33.4211151483469
1743367745207,16:49:05.207,-1,-1,1382.41758241758,1.44102564102564,33.4211151483469
1743367745227,16:49:05.227,-1,-1,1380.95238095238,1.44102564102564,33.4211151483469
1743367745246,16:49:05.246,-1,-1,1380.95238095238,1.44102564102564,33.4211151483469
1743367745266,16:49:05.266,-1,-1,1375.09157509157,1.44102564102564,33.4211151483469
1743367745285,16:49:05.285,-1,-1,1356.77655677656,1.44102564102564,33.4211151483469
1743367745305,16:49:05.305,-1,-1,1337.72893772894,1.44102564102564,33.4211151483469
1743367745324,16:49:05.324,-1,-1,1336.99633699634,1.44102564102564,33.4211151483469
1743367745344,16:49:05.344,-1,-1,1328.93772893773,1.43956043956044,33.4211151483469
1743367745363,16:49:05.363,-1,-1,1323.07692307692,1.44102564102564,33.4211151483469
1743367745383,16:49:05.383,-1,-1,1318.68131868132,1.43956043956044,33.4211151483469
1743367745402,16:49:05.402,-1,-1,1317.94871794872,1.43956043956044,33.4211151483469
1743367745422,16:49:05.422,-1,-1,1313.55311355311,1.43956043956044,33.4211151483469
1743367745441,16:49:05.441,-1,-1,1310.62271062271,1.43956043956044,33.4211151483469
1743367745461,16:49:05.461,-1,-1,1308.42490842491,1.43956043956044,33.4211151483469
1743367745480,16:49:05.480,-1,-1,1294.50549450549,1.43956043956044,33.4211151483469
1743367745500,16:49:05.500,-1,-1,1287.91208791209,1.43956043956044,33.4211151483469
1743367745519,16:49:05.519,-1,-1,1290.10989010989,1.43809523809524,33.4211151483469
1743367745539,16:49:05.539,-1,-1,1294.50549450549,1.43956043956044,33.4211151483469
1743367745558,16:49:05.558,-1,-1,1323.07692307692,1.43809523809524,33.4211151483469
1743367745578,16:49:05.578,-1,-1,1379.48717948718,1.43809523809524,33.4211151483469
1743367745597,16:49:05.597,-1,-1,1435.89743589744,1.43809523809524,33.4211151483469
1743367745617,16:49:05.617,-1,-1,1495.2380952381,1.43809523809524,33.4211151483469
1743367745636,16:49:05.636,-1,-1,1561.90476190476,1.43809523809524,33.4211151483469
1743367745656,16:49:05.656,-1,-1,1613.91941391941,1.43809523809524,33.4211151483469
1743367745675,16:49:05.675,-1,-1,1663.73626373626,1.43809523809524,33.4211151483469
1743367745695,16:49:05.695,-1,-1,1693.04029304029,1.43809523809524,33.4211151483469
1743367745714,16:49:05.714,-1,-1,1692.30769230769,1.43663003663004,33.4211151483469
1743367745734,16:49:05.734,-1,-1,1696.7032967033,1.43663003663004,33.4211151483469
1743367745753,16:49:05.753,-1,-1,1701.0989010989,1.43663003663004,33.4211151483469
1743367745773,16:49:05.773,-1,-1,1701.8315018315,1.43663003663004,33.4211151483469
1743367745792,16:49:05.792,-1,-1,1685.71428571429,1.43663003663004,33.4211151483469
1743367745812,16:49:05.812,-1,-1,1653.47985347985,1.43663003663004,33.4211151483469
1743367745831,16:49:05.831,-1,-1,1618.31501831502,1.43663003663004,33.4211151483469
1743367745851,16:49:05.851,-1,-1,1589.74358974359,1.43663003663004,33.4211151483469
1743367745870,16:49:05.870,-1,-1,1573.62637362637,1.43663003663004,33.4211151483469
1743367745890,16:49:05.890,-1,-1,1565.56776556777,1.43663003663004,33.4211151483469
1743367745909,16:49:05.909,-1,-1,1570.69597069597,1.43663003663004,33.4211151483469
1743367745929,16:49:05.929,-1,-1,1567.03296703297,1.43516483516484,33.4211151483469
1743367745948,16:49:05.948,-1,-1,1556.04395604396,1.43516483516484,33.4211151483469
1743367745968,16:49:05.968,-1,-1,1542.85714285714,1.43663003663004,33.4211151483469
1743367745987,16:49:05.987,-1,-1,1526.00732600733,1.43516483516484,33.4211151483469
1743367746007,16:49:06.007,-1,-1,1504.7619047619,1.43516483516484,33.4211151483469
1743367746026,16:49:06.026,-1,-1,1493.04029304029,1.43516483516484,33.4211151483469
1743367746046,16:49:06.046,-1,-1,1482.78388278388,1.43516483516484,33.4211151483469
1743367746065,16:49:06.065,-1,-1,1468.86446886447,1.43516483516484,33.4211151483469
1743367746085,16:49:06.085,-1,-1,1456.41025641026,1.43516483516484,33.4161118007032
1743367746104,16:49:06.104,-1,-1,1432.96703296703,1.43516483516484,33.4161118007032
1743367746124,16:49:06.124,-1,-1,1414.65201465201,1.43369963369963,33.4161118007032
1743367746143,16:49:06.143,-1,-1,1387.54578754579,1.43369963369963,33.4161118007032
1743367746163,16:49:06.163,-1,-1,1359.70695970696,1.43516483516484,33.4161118007032
1743367746182,16:49:06.182,-1,-1,1366.30036630037,1.43369963369963,33.4161118007032
1743367746202,16:49:06.202,-1,-1,1353.84615384615,1.43369963369963,33.4161118007032
1743367746221,16:49:06.221,-1,-1,1349.45054945055,1.43369963369963,33.4161118007032
1743367746241,16:49:06.241,-1,-1,1342.85714285714,1.43369963369963,33.4161118007032
1743367746260,16:49:06.260,-1,-1,1326.73992673993,1.43369963369963,33.4161118007032
1743367746280,16:49:06.280,-1,-1,1308.42490842491,1.43369963369963,33.4161118007032
1743367746299,16:49:06.299,-1,-1,1298.9010989011,1.43369963369963,33.4161118007032
1743367746319,16:49:06.319,-1,-1,1298.1684981685,1.43369963369963,33.4161118007032
1743367746338,16:49:06.338,-1,-1,1295.2380952381,1.43223443223443,33.4161118007032
1743367746358,16:49:06.358,-1,-1,1303.2967032967,1.43369963369963,33.4161118007032
1743367746377,16:49:06.377,-1,-1,1315.75091575092,1.43369963369963,33.4161118007032
1743367746397,16:49:06.397,-1,-1,1310.62271062271,1.43223443223443,33.4161118007032
1743367746416,16:49:06.416,-1,-1,1295.9706959707,1.43223443223443,33.4161118007032
1743367746436,16:49:06.436,-1,-1,1282.78388278388,1.43223443223443,33.4161118007032
1743367746455,16:49:06.455,-1,-1,1276.92307692308,1.43223443223443,33.4161118007032
1743367746475,16:49:06.475,-1,-1,1284.98168498168,1.43223443223443,33.4161118007032
1743367746494,16:49:06.494,-1,-1,1331.13553113553,1.43223443223443,33.4161118007032
1743367746514,16:49:06.514,-1,-1,1416.11721611722,1.43223443223443,33.4161118007032
1743367746533,16:49:06.533,-1,-1,1502.5641025641,1.43223443223443,33.4161118007032
1743367746553,16:49:06.553,-1,-1,1582.41758241758,1.43223443223443,33.4161118007032
1743367746572,16:49:06.572,-1,-1,1633.69963369963,1.43223443223443,33.4161118007032
1743367746592,16:49:06.592,-1,-1,1647.61904761905,1.43223443223443,33.4161118007032
1743367746611,16:49:06.611,-1,-1,1653.47985347985,1.43076923076923,33.4161118007032
1743367746631,16:49:06.631,-1,-1,1644.68864468864,1.43076923076923,33.4161118007032
1743367746650,16:49:06.650,-1,-1,1651.28205128205,1.43223443223443,33.4161118007032
1743367746670,16:49:06.670,-1,-1,1652.74725274725,1.43223443223443,33.4161118007032
1743367746689,16:49:06.689,-1,-1,1652.01465201465,1.43076923076923,33.4161118007032
1743367746709,16:49:06.709,-1,-1,1619.78021978022,1.43076923076923,33.4161118007032
1743367746728,16:49:06.728,-1,-1,1585.34798534799,1.43076923076923,33.4161118007032
1743367746748,16:49:06.748,-1,-1,1559.70695970696,1.43076923076923,33.4161118007032
1743367746767,16:49:06.767,-1,-1,1544.32234432234,1.43076923076923,33.4161118007032
1743367746787,16:49:06.787,-1,-1,1537.72893772894,1.43076923076923,33.4161118007032
1743367746806,16:49:06.806,-1,-1,1547.25274725275,1.43076923076923,33.4161118007032
1743367746826,16:49:06.826,-1,-1,1550.18315018315,1.43076923076923,33.4161118007032
1743367746845,16:49:06.845,-1,-1,1542.12454212454,1.43076923076923,33.4161118007032
1743367746865,16:49:06.865,-1,-1,1527.47252747253,1.43076923076923,33.4161118007032
1743367746884,16:49:06.884,-1,-1,1515.75091575092,1.43076923076923,33.4161118007032
1743367746904,16:49:06.904,-1,-1,1493.77289377289,1.43076923076923,33.4161118007032
1743367746923,16:49:06.923,-1,-1,1476.19047619048,1.43076923076923,33.4161118007032
1743367746943,16:49:06.943,-1,-1,1461.53846153846,1.43076923076923,33.4161118007032
1743367746962,16:49:06.962,-1,-1,1441.02564102564,1.43076923076923,33.4161118007032
1743367746982,16:49:06.982,-1,-1,1417.58241758242,1.42930402930403,33.4161118007032
1743367747001,16:49:07.001,-1,-1,1400.7326007326,1.42930402930403,33.4161118007032
1743367747021,16:49:07.021,-1,-1,1372.89377289377,1.43076923076923,33.4161118007032
1743367747040,16:49:07.040,-1,-1,1364.83516483516,1.42930402930403,33.4161118007032
1743367747060,16:49:07.060,-1,-1,1369.23076923077,1.42930402930403,33.4161118007032
1743367747079,16:49:07.079,-1,-1,1369.23076923077,1.42930402930403,33.4261184901698
1743367747099,16:49:07.099,-1,-1,1344.32234432234,1.42930402930403,33.4261184901698
1743367747118,16:49:07.118,-1,-1,1320.87912087912,1.42930402930403,33.4261184901698
1743367747138,16:49:07.138,-1,-1,1318.68131868132,1.42930402930403,33.4261184901698
1743367747157,16:49:07.157,-1,-1,1320.14652014652,1.42930402930403,33.4261184901698
1743367747177,16:49:07.177,-1,-1,1304.0293040293,1.42930402930403,33.4261184901698
1743367747196,16:49:07.196,-1,-1,1293.04029304029,1.42930402930403,33.4261184901698
1743367747216,16:49:07.216,-1,-1,1280.58608058608,1.42930402930403,33.4261184901698
1743367747235,16:49:07.235,-1,-1,1268.13186813187,1.42930402930403,33.4261184901698
1743367747255,16:49:07.255,-1,-1,1269.59706959707,1.42930402930403,33.4261184901698
1743367747274,16:49:07.274,-1,-1,1272.52747252747,1.42930402930403,33.4261184901698
1743367747294,16:49:07.294,-1,-1,1293.77289377289,1.42930402930403,33.4261184901698
1743367747313,16:49:07.313,-1,-1,1346.52014652015,1.42930402930403,33.4261184901698
1743367747333,16:49:07.333,-1,-1,1419.04761904762,1.42783882783883,33.4261184901698
1743367747352,16:49:07.352,-1,-1,1501.8315018315,1.42783882783883,33.4261184901698
1743367747372,16:49:07.372,-1,-1,1560.43956043956,1.42783882783883,33.4261184901698
1743367747391,16:49:07.391,-1,-1,1599.2673992674,1.42783882783883,33.4261184901698
1743367747411,16:49:07.411,-1,-1,1624.17582417582,1.42783882783883,33.4261184901698
1743367747430,16:49:07.430,-1,-1,1625.64102564103,1.42783882783883,33.4261184901698
1743367747450,16:49:07.450,-1,-1,1615.38461538462,1.42783882783883,33.4261184901698
1743367747469,16:49:07.469,-1,-1,1609.52380952381,1.42783882783883,33.4261184901698
1743367747489,16:49:07.489,-1,-1,1605.12820512821,1.42783882783883,33.4261184901698
1743367747508,16:49:07.508,-1,-1,1587.54578754579,1.42783882783883,33.4261184901698
1743367747528,16:49:07.528,-1,-1,1565.56776556777,1.42783882783883,33.4261184901698
1743367747547,16:49:07.547,-1,-1,1533.33333333333,1.42637362637363,33.4261184901698
1743367747567,16:49:07.567,-1,-1,1505.49450549451,1.42637362637363,33.4261184901698
1743367747586,16:49:07.586,-1,-1,1471.79487179487,1.42783882783883,33.4261184901698
1743367747606,16:49:07.606,-1,-1,1448.35164835165,1.42783882783883,33.4261184901698
1743367747626,16:49:07.625,-1,-1,1439.56043956044,1.42637362637363,33.4261184901698
1743367747645,16:49:07.645,-1,-1,1442.49084249084,1.42637362637363,33.4261184901698
1743367747665,16:49:07.664,-1,-1,1450.54945054945,1.42637362637363,33.4261184901698
1743367747684,16:49:07.684,-1,-1,1446.88644688645,1.42637362637363,33.4261184901698
1743367747704,16:49:07.703,-1,-1,1432.96703296703,1.42637362637363,33.4261184901698
1743367747723,16:49:07.723,-1,-1,1433.69963369963,1.42637362637363,33.4261184901698
1743367747743,16:49:07.743,-1,-1,1416.84981684982,1.42637362637363,33.4261184901698
1743367747762,16:49:07.762,-1,-1,1400,1.42637362637363,33.4261184901698
1743367747782,16:49:07.782,-1,-1,1384.61538461538,1.42637362637363,33.4261184901698
1743367747801,16:49:07.801,-1,-1,1364.10256410256,1.42637362637363,33.4261184901698
1743367747821,16:49:07.821,-1,-1,1345.78754578755,1.42637362637363,33.4261184901698
1743367747840,16:49:07.840,-1,-1,1328.20512820513,1.42637362637363,33.4261184901698
1743367747860,16:49:07.860,-1,-1,1317.94871794872,1.42637362637363,33.4261184901698
1743367747879,16:49:07.879,-1,-1,1307.69230769231,1.42637362637363,33.4261184901698
1743367747899,16:49:07.899,-1,-1,1298.1684981685,1.42637362637363,33.4261184901698
1743367747918,16:49:07.918,-1,-1,1297.4358974359,1.42637362637363,33.4261184901698
1743367747938,16:49:07.938,-1,-1,1290.10989010989,1.42637362637363,33.4261184901698
1743367747957,16:49:07.957,-1,-1,1284.24908424908,1.42490842490842,33.4261184901698
1743367747977,16:49:07.977,-1,-1,1277.65567765568,1.42490842490842,33.4261184901698
1743367747996,16:49:07.996,-1,-1,1269.59706959707,1.42637362637363,33.4261184901698
1743367748016,16:49:08.016,-1,-1,1267.39926739927,1.42490842490842,33.4261184901698
1743367748035,16:49:08.035,-1,-1,1262.27106227106,1.42490842490842,33.4261184901698
1743367748055,16:49:08.055,-1,-1,1256.41025641026,1.42490842490842,33.4261184901698
1743367748074,16:49:08.074,-1,-1,1256.41025641026,1.42490842490842,33.4361251563532
1743367748094,16:49:08.094,-1,-1,1263.00366300366,1.42490842490842,33.4361251563532
1743367748113,16:49:08.113,-1,-1,1292.30769230769,1.42490842490842,33.4361251563532
1743367748133,16:49:08.133,-1,-1,1358.24175824176,1.42490842490842,33.4361251563532
1743367748152,16:49:08.152,-1,-1,1443.22344322344,1.42490842490842,33.4361251563532
1743367748172,16:49:08.172,-1,-1,1524.54212454212,1.42490842490842,33.4361251563532
1743367748191,16:49:08.191,-1,-1,1583.88278388278,1.42490842490842,33.4361251563532
1743367748211,16:49:08.211,-1,-1,1611.72161172161,1.42490842490842,33.4361251563532
1743367748230,16:49:08.230,-1,-1,1632.96703296703,1.42490842490842,33.4361251563532
1743367748250,16:49:08.250,-1,-1,1621.97802197802,1.42490842490842,33.4361251563532
1743367748269,16:49:08.269,-1,-1,1598.5347985348,1.42490842490842,33.4361251563532
1743367748289,16:49:08.289,-1,-1,1586.08058608059,1.42490842490842,33.4361251563532
1743367748308,16:49:08.308,-1,-1,1584.61538461538,1.42490842490842,33.4361251563532
1743367748328,16:49:08.328,-1,-1,1576.55677655678,1.42490842490842,33.4361251563532
1743367748347,16:49:08.347,-1,-1,1548.71794871795,1.42490842490842,33.4361251563532
1743367748367,16:49:08.367,-1,-1,1523.80952380952,1.42490842490842,33.4361251563532
1743367748386,16:49:08.386,-1,-1,1504.7619047619,1.42344322344322,33.4361251563532
1743367748406,16:49:08.406,-1,-1,1490.10989010989,1.42344322344322,33.4361251563532
1743367748425,16:49:08.425,-1,-1,1472.52747252747,1.42344322344322,33.4361251563532
1743367748445,16:49:08.445,-1,-1,1456.41025641026,1.42490842490842,33.4361251563532
1743367748464,16:49:08.464,-1,-1,1444.68864468864,1.42490842490842,33.4361251563532
1743367748484,16:49:08.484,-1,-1,1459.34065934066,1.42490842490842,33.4361251563532
1743367748503,16:49:08.503,-1,-1,1462.27106227106,1.42490842490842,33.4361251563532
1743367748523,16:49:08.523,-1,-1,1443.22344322344,1.42344322344322,33.4361251563532
1743367748542,16:49:08.542,-1,-1,1430.76923076923,1.42490842490842,33.4361251563532
1743367748562,16:49:08.562,-1,-1,1428.57142857143,1.42490842490842,33.4361251563532
1743367748581,16:49:08.581,-1,-1,1415.38461538462,1.42490842490842,33.4361251563532
1743367748601,16:49:08.601,-1,-1,1394.13919413919,1.42490842490842,33.4361251563532
1743367748620,16:49:08.620,-1,-1,1375.09157509157,1.42490842490842,33.4361251563532
1743367748640,16:49:08.640,-1,-1,1359.70695970696,1.42490842490842,33.4361251563532
1743367748659,16:49:08.659,-1,-1,1343.58974358974,1.42490842490842,33.4361251563532
1743367748679,16:49:08.679,-1,-1,1335.53113553114,1.42490842490842,33.4361251563532
1743367748698,16:49:08.698,-1,-1,1323.80952380952,1.42490842490842,33.4361251563532
1743367748718,16:49:08.718,-1,-1,1318.68131868132,1.42490842490842,33.4361251563532
1743367748737,16:49:08.737,-1,-1,1304.7619047619,1.42637362637363,33.4361251563532
1743367748757,16:49:08.757,-1,-1,1284.98168498168,1.42637362637363,33.4361251563532
1743367748776,16:49:08.776,-1,-1,1260.80586080586,1.42637362637363,33.4361251563532
1743367748796,16:49:08.796,-1,-1,1253.47985347985,1.42637362637363,33.4361251563532
1743367748815,16:49:08.815,-1,-1,1263.73626373626,1.42637362637363,33.4361251563532
1743367748835,16:49:08.835,-1,-1,1267.39926739927,1.42637362637363,33.4361251563532
1743367748854,16:49:08.854,-1,-1,1268.13186813187,1.42637362637363,33.4361251563532
1743367748874,16:49:08.874,-1,-1,1261.53846153846,1.42783882783883,33.4361251563532
1743367748893,16:49:08.893,-1,-1,1243.22344322344,1.42783882783883,33.4361251563532
1743367748913,16:49:08.913,-1,-1,1232.23443223443,1.42783882783883,33.4361251563532
1743367748932,16:49:08.932,-1,-1,1229.30402930403,1.42783882783883,33.4361251563532
1743367748952,16:49:08.952,-1,-1,1235.89743589744,1.42930402930403,33.4361251563532
1743367748971,16:49:08.971,-1,-1,1240.29304029304,1.42930402930403,33.4361251563532
1743367748991,16:49:08.991,-1,-1,1257.14285714286,1.42930402930403,33.4361251563532
1743367749010,16:49:09.010,-1,-1,1308.42490842491,1.43076923076923,33.4361251563532
1743367749030,16:49:09.030,-1,-1,1375.09157509157,1.42930402930403,33.4361251563532
1743367749049,16:49:09.049,-1,-1,1443.95604395604,1.43076923076923,33.4361251563532
1743367749069,16:49:09.069,-1,-1,1500.3663003663,1.43076923076923,33.4261184901698
1743367749088,16:49:09.088,-1,-1,1539.92673992674,1.43076923076923,33.4261184901698
1743367749108,16:49:09.108,-1,-1,1564.83516483516,1.43223443223443,33.4261184901698
1743367749127,16:49:09.127,-1,-1,1588.27838827839,1.43223443223443,33.4261184901698
1743367749147,16:49:09.147,-1,-1,1591.20879120879,1.43223443223443,33.4261184901698
1743367749166,16:49:09.166,-1,-1,1583.15018315018,1.43223443223443,33.4261184901698
1743367749186,16:49:09.186,-1,-1,1571.42857142857,1.43369963369963,33.4261184901698
1743367749205,16:49:09.205,-1,-1,1552.38095238095,1.43369963369963,33.4261184901698
1743367749225,16:49:09.225,-1,-1,1528.93772893773,1.43369963369963,33.4261184901698
1743367749244,16:49:09.244,-1,-1,1506.95970695971,1.43369963369963,33.4261184901698
1743367749264,16:49:09.264,-1,-1,1473.26007326007,1.43516483516484,33.4261184901698
1743367749283,16:49:09.283,-1,-1,1439.56043956044,1.43516483516484,33.4261184901698
1743367749303,16:49:09.303,-1,-1,1413.91941391941,1.43516483516484,33.4261184901698
1743367749322,16:49:09.322,-1,-1,1407.32600732601,1.43516483516484,33.4261184901698
1743367749342,16:49:09.342,-1,-1,1413.91941391941,1.43516483516484,33.4261184901698
1743367749361,16:49:09.361,-1,-1,1423.44322344322,1.43663003663004,33.4261184901698
1743367749381,16:49:09.381,-1,-1,1413.18681318681,1.43663003663004,33.4261184901698
1743367749400,16:49:09.400,-1,-1,1408.05860805861,1.43663003663004,33.4261184901698
1743367749420,16:49:09.420,-1,-1,1410.98901098901,1.43663003663004,33.4261184901698
1743367749439,16:49:09.439,-1,-1,1402.1978021978,1.43809523809524,33.4261184901698
1743367749459,16:49:09.459,-1,-1,1377.28937728938,1.43809523809524,33.4261184901698
1743367749478,16:49:09.478,-1,-1,1349.45054945055,1.43809523809524,33.4261184901698
1743367749498,16:49:09.498,-1,-1,1321.61172161172,1.43809523809524,33.4261184901698
1743367749517,16:49:09.517,-1,-1,1296.7032967033,1.43809523809524,33.4261184901698
1743367749537,16:49:09.537,-1,-1,1286.44688644689,1.43809523809524,33.4261184901698
1743367749556,16:49:09.556,-1,-1,1279.12087912088,1.43809523809524,33.4261184901698
1743367749576,16:49:09.576,-1,-1,1274.72527472527,1.43956043956044,33.4261184901698
1743367749595,16:49:09.595,-1,-1,1284.24908424908,1.43956043956044,33.4261184901698
1743367749615,16:49:09.615,-1,-1,1287.17948717949,1.43956043956044,33.4261184901698
1743367749634,16:49:09.634,-1,-1,1282.78388278388,1.43956043956044,33.4261184901698
1743367749654,16:49:09.654,-1,-1,1272.52747252747,1.43956043956044,33.4261184901698
1743367749673,16:49:09.673,-1,-1,1274.72527472527,1.43956043956044,33.4261184901698
1743367749693,16:49:09.693,-1,-1,1273.99267399267,1.43956043956044,33.4261184901698
1743367749712,16:49:09.712,-1,-1,1269.59706959707,1.44102564102564,33.4261184901698
1743367749732,16:49:09.732,-1,-1,1263.73626373626,1.43956043956044,33.4261184901698
1743367749751,16:49:09.751,-1,-1,1246.88644688645,1.44102564102564,33.4261184901698
1743367749771,16:49:09.771,-1,-1,1232.23443223443,1.43956043956044,33.4261184901698
1743367749790,16:49:09.790,-1,-1,1211.72161172161,1.44102564102564,33.4261184901698
1743367749810,16:49:09.810,-1,-1,1189.01098901099,1.44102564102564,33.4261184901698
1743367749829,16:49:09.829,-1,-1,1188.27838827839,1.44102564102564,33.4261184901698
1743367749849,16:49:09.849,-1,-1,1205.86080586081,1.44102564102564,33.4261184901698
1743367749868,16:49:09.868,-1,-1,1222.71062271062,1.44102564102564,33.4261184901698
1743367749888,16:49:09.888,-1,-1,1262.27106227106,1.44102564102564,33.4261184901698
1743367749907,16:49:09.907,-1,-1,1309.89010989011,1.44102564102564,33.4261184901698
1743367749927,16:49:09.927,-1,-1,1363.36996336996,1.44102564102564,33.4261184901698
1743367749946,16:49:09.946,-1,-1,1413.91941391941,1.44102564102564,33.4261184901698
1743367749966,16:49:09.966,-1,-1,1449.81684981685,1.44102564102564,33.4261184901698
1743367749985,16:49:09.985,-1,-1,1479.12087912088,1.44249084249084,33.4261184901698
1743367750005,16:49:10.005,-1,-1,1495.2380952381,1.44249084249084,33.4261184901698
1743367750024,16:49:10.024,-1,-1,1487.91208791209,1.44395604395604,33.4261184901698
1743367750044,16:49:10.044,-1,-1,1498.9010989011,1.44395604395604,33.4261184901698
1743367750063,16:49:10.063,-1,-1,1505.49450549451,1.44395604395604,33.4261184901698
1743367750083,16:49:10.083,-1,-1,1510.62271062271,1.44542124542125,33.4261184901698
1743367750102,16:49:10.102,-1,-1,1512.08791208791,1.44542124542125,33.4261184901698
1743367750122,16:49:10.122,-1,-1,1497.4358974359,1.44542124542125,33.4261184901698
1743367750141,16:49:10.141,-1,-1,1471.06227106227,1.44542124542125,33.4261184901698
1743367750161,16:49:10.161,-1,-1,1433.69963369963,1.44542124542125,33.4261184901698
1743367750180,16:49:10.180,-1,-1,1405.86080586081,1.44542124542125,33.4261184901698
1743367750200,16:49:10.200,-1,-1,1392.67399267399,1.44542124542125,33.4261184901698
1743367750219,16:49:10.219,-1,-1,1386.81318681319,1.44688644688645,33.4261184901698
1743367750239,16:49:10.239,-1,-1,1382.41758241758,1.44688644688645,33.4261184901698
1743367750258,16:49:10.258,-1,-1,1380.95238095238,1.44688644688645,33.4261184901698
1743367750278,16:49:10.278,-1,-1,1380.21978021978,1.44688644688645,33.4261184901698
1743367750297,16:49:10.297,-1,-1,1363.36996336996,1.44688644688645,33.4261184901698
1743367750317,16:49:10.317,-1,-1,1353.84615384615,1.44688644688645,33.4261184901698
1743367750336,16:49:10.336,-1,-1,1336.99633699634,1.44542124542125,33.4261184901698
1743367750356,16:49:10.356,-1,-1,1323.80952380952,1.44688644688645,33.4261184901698
1743367750375,16:49:10.375,-1,-1,1322.34432234432,1.44688644688645,33.4261184901698
1743367750395,16:49:10.395,-1,-1,1309.15750915751,1.44688644688645,33.4261184901698
1743367750414,16:49:10.414,-1,-1,1294.50549450549,1.44688644688645,33.4261184901698
1743367750434,16:49:10.434,-1,-1,1291.57509157509,1.44688644688645,33.4261184901698
1743367750453,16:49:10.453,-1,-1,1277.65567765568,1.44688644688645,33.4261184901698
1743367750473,16:49:10.473,-1,-1,1263.73626373626,1.44688644688645,33.4261184901698
1743367750492,16:49:10.492,-1,-1,1251.28205128205,1.44688644688645,33.4261184901698
1743367750512,16:49:10.512,-1,-1,1249.81684981685,1.44688644688645,33.4261184901698
1743367750531,16:49:10.531,-1,-1,1258.60805860806,1.44542124542125,33.4261184901698
1743367750551,16:49:10.551,-1,-1,1258.60805860806,1.44688644688645,33.4261184901698
1743367750570,16:49:10.570,-1,-1,1262.27106227106,1.44542124542125,33.4261184901698
1743367750590,16:49:10.590,-1,-1,1252.01465201465,1.44542124542125,33.4261184901698
1743367750609,16:49:10.609,-1,-1,1249.08424908425,1.44542124542125,33.4261184901698
1743367750629,16:49:10.629,-1,-1,1254.94505494505,1.44542124542125,33.4261184901698
1743367750648,16:49:10.648,-1,-1,1247.61904761905,1.44542124542125,33.4261184901698
1743367750668,16:49:10.668,-1,-1,1240.29304029304,1.44542124542125,33.4261184901698
1743367750687,16:49:10.687,-1,-1,1241.02564102564,1.44542124542125,33.4261184901698
1743367750707,16:49:10.707,-1,-1,1239.56043956044,1.44542124542125,33.4261184901698
1743367750726,16:49:10.726,-1,-1,1238.82783882784,1.44542124542125,33.4261184901698
1743367750746,16:49:10.746,-1,-1,1260.07326007326,1.44542124542125,33.4261184901698
1743367750765,16:49:10.765,-1,-1,1290.84249084249,1.44542124542125,33.4261184901698
1743367750785,16:49:10.785,-1,-1,1320.87912087912,1.44542124542125,33.4261184901698
1743367750804,16:49:10.804,-1,-1,1360.43956043956,1.44542124542125,33.4261184901698
1743367750824,16:49:10.824,-1,-1,1399.2673992674,1.44542124542125,33.4261184901698
1743367750843,16:49:10.843,-1,-1,1427.83882783883,1.44542124542125,33.4261184901698
1743367750863,16:49:10.863,-1,-1,1435.89743589744,1.44542124542125,33.4261184901698
1743367750882,16:49:10.882,-1,-1,1442.49084249084,1.44395604395604,33.4261184901698
1743367750902,16:49:10.902,-1,-1,1445.42124542125,1.44395604395604,33.4261184901698
1743367750921,16:49:10.921,-1,-1,1424.90842490842,1.44395604395604,33.4261184901698
1743367750941,16:49:10.941,-1,-1,1402.1978021978,1.44395604395604,33.4261184901698
1743367750960,16:49:10.960,-1,-1,1400,1.44395604395604,33.4261184901698
1743367750980,16:49:10.980,-1,-1,1404.3956043956,1.44395604395604,33.4261184901698
1743367750999,16:49:10.999,-1,-1,1401.4652014652,1.44395604395604,33.4261184901698
1743367751019,16:49:11.019,-1,-1,1372.16117216117,1.44395604395604,33.4261184901698
1743367751038,16:49:11.038,-1,-1,1345.78754578755,1.44395604395604,33.4261184901698
1743367751058,16:49:11.058,-1,-1,1339.19413919414,1.44395604395604,33.4311218261719
1743367751077,16:49:11.077,-1,-1,1347.25274725275,1.44249084249084,33.4311218261719
1743367751097,16:49:11.097,-1,-1,1375.82417582418,1.44395604395604,33.4311218261719
1743367751116,16:49:11.116,-1,-1,1396.336996337,1.44249084249084,33.4311218261719
1743367751136,16:49:11.136,-1,-1,1384.61538461538,1.44249084249084,33.4311218261719
1743367751155,16:49:11.155,-1,-1,1346.52014652015,1.44249084249084,33.4311218261719
1743367751175,16:49:11.175,-1,-1,1323.80952380952,1.44249084249084,33.4311218261719
1743367751194,16:49:11.194,-1,-1,1318.68131868132,1.44249084249084,33.4311218261719
1743367751214,16:49:11.214,-1,-1,1316.48351648352,1.44249084249084,33.4311218261719
1743367751233,16:49:11.233,-1,-1,1306.95970695971,1.44249084249084,33.4311218261719
1743367751253,16:49:11.253,-1,-1,1295.9706959707,1.44102564102564,33.4311218261719
1743367751272,16:49:11.272,-1,-1,1294.50549450549,1.44102564102564,33.4311218261719
1743367751292,16:49:11.292,-1,-1,1286.44688644689,1.44102564102564,33.4311218261719
1743367751311,16:49:11.311,-1,-1,1267.39926739927,1.44102564102564,33.4311218261719
1743367751331,16:49:11.331,-1,-1,1254.21245421245,1.44102564102564,33.4311218261719
1743367751350,16:49:11.350,-1,-1,1254.21245421245,1.44102564102564,33.4311218261719
1743367751370,16:49:11.370,-1,-1,1257.14285714286,1.44102564102564,33.4311218261719
1743367751389,16:49:11.389,-1,-1,1257.87545787546,1.43956043956044,33.4311218261719
1743367751409,16:49:11.409,-1,-1,1260.80586080586,1.44102564102564,33.4311218261719
1743367751428,16:49:11.428,-1,-1,1256.41025641026,1.43956043956044,33.4311218261719
1743367751448,16:49:11.448,-1,-1,1243.22344322344,1.43956043956044,33.4311218261719
1743367751467,16:49:11.467,-1,-1,1238.82783882784,1.43956043956044,33.4311218261719
1743367751487,16:49:11.487,-1,-1,1238.82783882784,1.43956043956044,33.4311218261719
1743367751506,16:49:11.506,-1,-1,1233.69963369963,1.43809523809524,33.4311218261719
1743367751526,16:49:11.526,-1,-1,1239.56043956044,1.43809523809524,33.4311218261719
1743367751545,16:49:11.545,-1,-1,1264.46886446886,1.43809523809524,33.4311218261719
1743367751565,16:49:11.565,-1,-1,1300.3663003663,1.43809523809524,33.4311218261719
1743367751584,16:49:11.584,-1,-1,1342.85714285714,1.43809523809524,33.4311218261719
1743367751604,16:49:11.604,-1,-1,1384.61538461538,1.43809523809524,33.4311218261719
1743367751623,16:49:11.623,-1,-1,1420.51282051282,1.43663003663004,33.4311218261719
1743367751643,16:49:11.643,-1,-1,1451.28205128205,1.43663003663004,33.4311218261719
1743367751662,16:49:11.662,-1,-1,1471.06227106227,1.43663003663004,33.4311218261719
1743367751682,16:49:11.682,-1,-1,1476.19047619048,1.43663003663004,33.4311218261719
1743367751701,16:49:11.701,-1,-1,1490.10989010989,1.43663003663004,33.4311218261719
1743367751721,16:49:11.721,-1,-1,1499.6336996337,1.43663003663004,33.4311218261719
1743367751740,16:49:11.740,-1,-1,1485.71428571429,1.43516483516484,33.4311218261719
1743367751760,16:49:11.760,-1,-1,1473.99267399267,1.43663003663004,33.4311218261719
1743367751779,16:49:11.779,-1,-1,1451.28205128205,1.43516483516484,33.4311218261719
1743367751799,16:49:11.799,-1,-1,1426.37362637363,1.43516483516484,33.4311218261719
1743367751818,16:49:11.818,-1,-1,1408.79120879121,1.43516483516484,33.4311218261719
1743367751838,16:49:11.838,-1,-1,1397.0695970696,1.43516483516484,33.4311218261719
1743367751857,16:49:11.857,-1,-1,1394.13919413919,1.43516483516484,33.4311218261719
1743367751877,16:49:11.877,-1,-1,1384.61538461538,1.43516483516484,33.4311218261719
1743367751896,16:49:11.896,-1,-1,1377.28937728938,1.43516483516484,33.4311218261719
1743367751916,16:49:11.916,-1,-1,1373.62637362637,1.43369963369963,33.4311218261719
1743367751935,16:49:11.935,-1,-1,1378.75457875458,1.43369963369963,33.4311218261719
1743367751955,16:49:11.955,-1,-1,1379.48717948718,1.43369963369963,33.4311218261719
1743367751974,16:49:11.974,-1,-1,1369.23076923077,1.43369963369963,33.4311218261719
1743367751994,16:49:11.994,-1,-1,1339.92673992674,1.43369963369963,33.4311218261719
1743367752013,16:49:12.013,-1,-1,1313.55311355311,1.43369963369963,33.4311218261719
1743367752033,16:49:12.033,-1,-1,1298.9010989011,1.43369963369963,33.4311218261719
1743367752052,16:49:12.052,-1,-1,1301.8315018315,1.43223443223443,33.4411284807138
1743367752072,16:49:12.072,-1,-1,1306.22710622711,1.43223443223443,33.4411284807138
1743367752091,16:49:12.091,-1,-1,1301.0989010989,1.43223443223443,33.4411284807138
1743367752111,16:49:12.111,-1,-1,1290.84249084249,1.43223443223443,33.4411284807138
1743367752130,16:49:12.130,-1,-1,1273.99267399267,1.43223443223443,33.4411284807138
1743367752150,16:49:12.150,-1,-1,1266.66666666667,1.43223443223443,33.4411284807138
1743367752169,16:49:12.169,-1,-1,1273.26007326007,1.43223443223443,33.4411284807138
1743367752189,16:49:12.189,-1,-1,1277.65567765568,1.43076923076923,33.4411284807138
1743367752208,16:49:12.208,-1,-1,1291.57509157509,1.43223443223443,33.4411284807138
1743367752228,16:49:12.228,-1,-1,1281.31868131868,1.43076923076923,33.4411284807138
1743367752247,16:49:12.247,-1,-1,1265.20146520147,1.43076923076923,33.4411284807138
1743367752267,16:49:12.267,-1,-1,1262.27106227106,1.43076923076923,33.4411284807138
1743367752286,16:49:12.286,-1,-1,1257.87545787546,1.43076923076923,33.4411284807138
1743367752306,16:49:12.306,-1,-1,1259.34065934066,1.43076923076923,33.4411284807138
1743367752325,16:49:12.325,-1,-1,1254.21245421245,1.43076923076923,33.4411284807138
1743367752345,16:49:12.345,-1,-1,1250.54945054945,1.43076923076923,33.4411284807138
1743367752364,16:49:12.364,-1,-1,1253.47985347985,1.43076923076923,33.4411284807138
1743367752384,16:49:12.384,-1,-1,1265.93406593407,1.43076923076923,33.4411284807138
1743367752403,16:49:12.403,-1,-1,1301.8315018315,1.42930402930403,33.4411284807138
1743367752423,16:49:12.423,-1,-1,1343.58974358974,1.42930402930403,33.4411284807138
1743367752442,16:49:12.442,-1,-1,1388.27838827839,1.42930402930403,33.4411284807138
1743367752462,16:49:12.462,-1,-1,1428.57142857143,1.42930402930403,33.4411284807138
1743367752481,16:49:12.481,-1,-1,1460.07326007326,1.42930402930403,33.4411284807138
1743367752501,16:49:12.501,-1,-1,1495.9706959707,1.42930402930403,33.4411284807138
1743367752520,16:49:12.520,-1,-1,1523.07692307692,1.42930402930403,33.4411284807138
1743367752540,16:49:12.540,-1,-1,1539.19413919414,1.42930402930403,33.4411284807138
1743367752559,16:49:12.559,-1,-1,1553.11355311355,1.42930402930403,33.4411284807138
1743367752579,16:49:12.579,-1,-1,1571.42857142857,1.42930402930403,33.4411284807138
1743367752598,16:49:12.598,-1,-1,1564.10256410256,1.42930402930403,33.4411284807138
1743367752618,16:49:12.618,-1,-1,1542.85714285714,1.42783882783883,33.4411284807138
1743367752637,16:49:12.637,-1,-1,1520.87912087912,1.42930402930403,33.4411284807138
1743367752657,16:49:12.657,-1,-1,1487.17948717949,1.42783882783883,33.4411284807138
1743367752676,16:49:12.676,-1,-1,1471.79487179487,1.42783882783883,33.4411284807138
1743367752696,16:49:12.696,-1,-1,1472.52747252747,1.42783882783883,33.4411284807138
1743367752715,16:49:12.715,-1,-1,1473.99267399267,1.42783882783883,33.4411284807138
1743367752735,16:49:12.735,-1,-1,1463.73626373626,1.42783882783883,33.4411284807138
1743367752754,16:49:12.754,-1,-1,1458.60805860806,1.42783882783883,33.4411284807138
1743367752774,16:49:12.774,-1,-1,1460.80586080586,1.42637362637363,33.4411284807138
1743367752793,16:49:12.793,-1,-1,1469.59706959707,1.42783882783883,33.4411284807138
1743367752813,16:49:12.813,-1,-1,1471.06227106227,1.42783882783883,33.4411284807138
1743367752832,16:49:12.832,-1,-1,1452.01465201465,1.42637362637363,33.4411284807138
1743367752852,16:49:12.852,-1,-1,1420.51282051282,1.42637362637363,33.4411284807138
1743367752871,16:49:12.871,-1,-1,1405.86080586081,1.42637362637363,33.4411284807138
1743367752891,16:49:12.891,-1,-1,1397.0695970696,1.42637362637363,33.4411284807138
1743367752910,16:49:12.910,-1,-1,1380.21978021978,1.42637362637363,33.4411284807138
1743367752930,16:49:12.930,-1,-1,1358.24175824176,1.42637362637363,33.4411284807138
1743367752949,16:49:12.949,-1,-1,1348.71794871795,1.42637362637363,33.4411284807138
1743367752969,16:49:12.969,-1,-1,1345.78754578755,1.42490842490842,33.4411284807138
1743367752988,16:49:12.988,-1,-1,1347.98534798535,1.42490842490842,33.4411284807138
1743367753008,16:49:13.008,-1,-1,1338.46153846154,1.42490842490842,33.4411284807138
1743367753027,16:49:13.027,-1,-1,1327.47252747253,1.42490842490842,33.4411284807138
1743367753047,16:49:13.047,-1,-1,1324.54212454212,1.42490842490842,33.4361251563532
1743367753066,16:49:13.066,-1,-1,1330.40293040293,1.42490842490842,33.4361251563532
1743367753086,16:49:13.086,-1,-1,1330.40293040293,1.42490842490842,33.4361251563532
1743367753105,16:49:13.105,-1,-1,1311.35531135531,1.42490842490842,33.4361251563532
1743367753125,16:49:13.125,-1,-1,1296.7032967033,1.42344322344322,33.4361251563532
1743367753144,16:49:13.144,-1,-1,1295.9706959707,1.42490842490842,33.4361251563532
1743367753164,16:49:13.164,-1,-1,1298.9010989011,1.42344322344322,33.4361251563532
1743367753183,16:49:13.183,-1,-1,1295.9706959707,1.42344322344322,33.4361251563532
1743367753203,16:49:13.203,-1,-1,1287.17948717949,1.42344322344322,33.4361251563532
1743367753222,16:49:13.222,-1,-1,1291.57509157509,1.42344322344322,33.4361251563532
1743367753242,16:49:13.242,-1,-1,1292.30769230769,1.42344322344322,33.4361251563532
1743367753261,16:49:13.261,-1,-1,1278.38827838828,1.42344322344322,33.4361251563532
1743367753281,16:49:13.281,-1,-1,1280.58608058608,1.42344322344322,33.4361251563532
1743367753300,16:49:13.300,-1,-1,1298.1684981685,1.42344322344322,33.4361251563532
1743367753320,16:49:13.320,-1,-1,1350.18315018315,1.42344322344322,33.4361251563532
1743367753339,16:49:13.339,-1,-1,1413.18681318681,1.42197802197802,33.4361251563532
1743367753359,16:49:13.359,-1,-1,1469.59706959707,1.42344322344322,33.4361251563532
1743367753378,16:49:13.378,-1,-1,1518.68131868132,1.42197802197802,33.4361251563532
1743367753398,16:49:13.398,-1,-1,1553.84615384615,1.42344322344322,33.4361251563532
1743367753417,16:49:13.417,-1,-1,1562.63736263736,1.42197802197802,33.4361251563532
1743367753437,16:49:13.437,-1,-1,1567.76556776557,1.42197802197802,33.4361251563532
1743367753456,16:49:13.456,-1,-1,1572.16117216117,1.42197802197802,33.4361251563532
1743367753476,16:49:13.476,-1,-1,1582.41758241758,1.42197802197802,33.4361251563532
1743367753495,16:49:13.495,-1,-1,1600.7326007326,1.42197802197802,33.4361251563532
1743367753515,16:49:13.515,-1,-1,1610.98901098901,1.42197802197802,33.4361251563532
1743367753534,16:49:13.534,-1,-1,1613.18681318681,1.42197802197802,33.4361251563532
1743367753554,16:49:13.554,-1,-1,1600.7326007326,1.42197802197802,33.4361251563532
1743367753573,16:49:13.573,-1,-1,1580.95238095238,1.42051282051282,33.4361251563532
1743367753593,16:49:13.593,-1,-1,1567.76556776557,1.42197802197802,33.4361251563532
1743367753612,16:49:13.612,-1,-1,1551.64835164835,1.42197802197802,33.4361251563532
1743367753632,16:49:13.632,-1,-1,1539.19413919414,1.42051282051282,33.4361251563532
1743367753651,16:49:13.651,-1,-1,1535.53113553114,1.42197802197802,33.4361251563532
1743367753671,16:49:13.671,-1,-1,1525.27472527473,1.42051282051282,33.4361251563532
1743367753690,16:49:13.690,-1,-1,1520.14652014652,1.42051282051282,33.4361251563532
1743367753710,16:49:13.710,-1,-1,1517.21611721612,1.42051282051282,33.4361251563532
1743367753729,16:49:13.729,-1,-1,1510.62271062271,1.42051282051282,33.4361251563532
1743367753749,16:49:13.749,-1,-1,1495.9706959707,1.42051282051282,33.4361251563532
1743367753768,16:49:13.768,-1,-1,1473.26007326007,1.42051282051282,33.4361251563532
1743367753788,16:49:13.788,-1,-1,1445.42124542125,1.42051282051282,33.4361251563532
1743367753807,16:49:13.807,-1,-1,1425.64102564103,1.42051282051282,33.4361251563532
1743367753827,16:49:13.827,-1,-1,1413.18681318681,1.42051282051282,33.4361251563532
1743367753846,16:49:13.846,-1,-1,1405.12820512821,1.42051282051282,33.4361251563532
1743367753866,16:49:13.866,-1,-1,1397.0695970696,1.42051282051282,33.4361251563532
1743367753885,16:49:13.885,-1,-1,1395.6043956044,1.42051282051282,33.4361251563532
1743367753905,16:49:13.905,-1,-1,1391.20879120879,1.42051282051282,33.4361251563532
1743367753924,16:49:13.924,-1,-1,1381.68498168498,1.41904761904762,33.4361251563532
1743367753944,16:49:13.944,-1,-1,1362.63736263736,1.41904761904762,33.4361251563532
1743367753963,16:49:13.963,-1,-1,1339.19413919414,1.41904761904762,33.4361251563532
1743367753983,16:49:13.983,-1,-1,1317.94871794872,1.42051282051282,33.4361251563532
1743367754002,16:49:14.002,-1,-1,1311.35531135531,1.42051282051282,33.4361251563532
1743367754022,16:49:14.022,-1,-1,1309.15750915751,1.41904761904762,33.4361251563532
1743367754041,16:49:14.041,-1,-1,1309.15750915751,1.41904761904762,33.4361251563532
1743367754061,16:49:14.061,-1,-1,1306.95970695971,1.41904761904762,33.4361251563532
1743367754080,16:49:14.080,-1,-1,1300.3663003663,1.41904761904762,33.4361251563532
1743367754100,16:49:14.100,-1,-1,1293.04029304029,1.41904761904762,33.4361251563532
1743367754119,16:49:14.119,-1,-1,1286.44688644689,1.41904761904762,33.4361251563532
1743367754139,16:49:14.139,-1,-1,1286.44688644689,1.41904761904762,33.4361251563532
1743367754158,16:49:14.158,-1,-1,1287.91208791209,1.41904761904762,33.4361251563532
1743367754178,16:49:14.178,-1,-1,1285.71428571429,1.41904761904762,33.4361251563532
1743367754197,16:49:14.197,-1,-1,1280.58608058608,1.41904761904762,33.4361251563532
1743367754217,16:49:14.217,-1,-1,1290.84249084249,1.41904761904762,33.4361251563532
1743367754236,16:49:14.236,-1,-1,1323.07692307692,1.41904761904762,33.4361251563532
1743367754256,16:49:14.256,-1,-1,1389.01098901099,1.41904761904762,33.4361251563532
1743367754275,16:49:14.275,-1,-1,1467.39926739927,1.41904761904762,33.4361251563532
1743367754295,16:49:14.295,-1,-1,1526.73992673993,1.41904761904762,33.4361251563532
1743367754314,16:49:14.314,-1,-1,1571.42857142857,1.41904761904762,33.4361251563532
1743367754334,16:49:14.334,-1,-1,1605.86080586081,1.41904761904762,33.4361251563532
1743367754353,16:49:14.353,-1,-1,1621.97802197802,1.41904761904762,33.4361251563532
1743367754373,16:49:14.373,-1,-1,1624.17582417582,1.41904761904762,33.4361251563532
1743367754392,16:49:14.392,-1,-1,1628.57142857143,1.41758241758242,33.4361251563532
1743367754412,16:49:14.412,-1,-1,1632.96703296703,1.41758241758242,33.4361251563532
1743367754431,16:49:14.431,-1,-1,1640.29304029304,1.41904761904762,33.4361251563532
1743367754451,16:49:14.451,-1,-1,1627.83882783883,1.41758241758242,33.4361251563532
1743367754470,16:49:14.470,-1,-1,1600,1.41758241758242,33.4361251563532
1743367754490,16:49:14.490,-1,-1,1569.23076923077,1.41758241758242,33.4361251563532
1743367754509,16:49:14.509,-1,-1,1548.71794871795,1.41904761904762,33.4361251563532
1743367754529,16:49:14.529,-1,-1,1536.26373626374,1.41758241758242,33.4361251563532
1743367754548,16:49:14.548,-1,-1,1530.40293040293,1.41758241758242,33.4361251563532
1743367754568,16:49:14.568,-1,-1,1531.86813186813,1.41904761904762,33.4361251563532
1743367754587,16:49:14.587,-1,-1,1528.93772893773,1.41758241758242,33.4361251563532
1743367754607,16:49:14.607,-1,-1,1539.19413919414,1.41758241758242,33.4361251563532
1743367754626,16:49:14.626,-1,-1,1528.20512820513,1.41758241758242,33.4361251563532
1743367754646,16:49:14.646,-1,-1,1518.68131868132,1.41758241758242,33.4361251563532
1743367754665,16:49:14.665,-1,-1,1514.28571428571,1.41758241758242,33.4361251563532
1743367754685,16:49:14.685,-1,-1,1504.7619047619,1.41758241758242,33.4361251563532
1743367754704,16:49:14.704,-1,-1,1482.05128205128,1.41758241758242,33.4361251563532
1743367754724,16:49:14.724,-1,-1,1463.00366300366,1.41758241758242,33.4361251563532
1743367754743,16:49:14.743,-1,-1,1446.88644688645,1.41758241758242,33.4361251563532
1743367754763,16:49:14.763,-1,-1,1419.78021978022,1.41758241758242,33.4361251563532
1743367754782,16:49:14.782,-1,-1,1381.68498168498,1.41758241758242,33.4361251563532
1743367754802,16:49:14.802,-1,-1,1367.76556776557,1.41758241758242,33.4361251563532
1743367754821,16:49:14.821,-1,-1,1354.57875457875,1.41758241758242,33.4361251563532
1743367754841,16:49:14.841,-1,-1,1341.39194139194,1.41611721611722,33.4361251563532
1743367754860,16:49:14.860,-1,-1,1340.65934065934,1.41611721611722,33.4361251563532
1743367754880,16:49:14.880,-1,-1,1342.12454212454,1.41611721611722,33.4361251563532
1743367754899,16:49:14.899,-1,-1,1330.40293040293,1.41611721611722,33.4361251563532
1743367754919,16:49:14.919,-1,-1,1321.61172161172,1.41611721611722,33.4361251563532
1743367754938,16:49:14.938,-1,-1,1316.48351648352,1.41611721611722,33.4361251563532
1743367754958,16:49:14.958,-1,-1,1318.68131868132,1.41611721611722,33.4361251563532
1743367754977,16:49:14.977,-1,-1,1314.28571428571,1.41611721611722,33.4361251563532
1743367754997,16:49:14.997,-1,-1,1295.9706959707,1.41611721611722,33.4361251563532
1743367755016,16:49:15.016,-1,-1,1283.51648351648,1.41611721611722,33.4361251563532
1743367755036,16:49:15.036,-1,-1,1298.9010989011,1.41611721611722,33.4411284807138
1743367755055,16:49:15.055,-1,-1,1334.06593406593,1.41611721611722,33.4411284807138
1743367755075,16:49:15.075,-1,-1,1391.94139194139,1.41611721611722,33.4411284807138
1743367755094,16:49:15.094,-1,-1,1463.00366300366,1.41758241758242,33.4411284807138
1743367755114,16:49:15.114,-1,-1,1542.85714285714,1.41611721611722,33.4411284807138
1743367755133,16:49:15.133,-1,-1,1608.05860805861,1.41758241758242,33.4411284807138
1743367755153,16:49:15.153,-1,-1,1644.68864468864,1.41758241758242,33.4411284807138
1743367755172,16:49:15.172,-1,-1,1651.28205128205,1.41611721611722,33.4411284807138
1743367755192,16:49:15.192,-1,-1,1658.60805860806,1.41611721611722,33.4411284807138
1743367755211,16:49:15.211,-1,-1,1654.94505494505,1.41611721611722,33.4411284807138
1743367755231,16:49:15.231,-1,-1,1634.43223443223,1.41611721611722,33.4411284807138
1743367755250,16:49:15.250,-1,-1,1602.9304029304,1.41611721611722,33.4411284807138
1743367755270,16:49:15.270,-1,-1,1580.21978021978,1.41611721611722,33.4411284807138
1743367755289,16:49:15.289,-1,-1,1558.24175824176,1.41611721611722,33.4411284807138
1743367755309,16:49:15.309,-1,-1,1548.71794871795,1.41611721611722,33.4411284807138
1743367755328,16:49:15.328,-1,-1,1526.00732600733,1.41611721611722,33.4411284807138
1743367755348,16:49:15.348,-1,-1,1518.68131868132,1.41611721611722,33.4411284807138
1743367755367,16:49:15.367,-1,-1,1506.95970695971,1.41611721611722,33.4411284807138
1743367755387,16:49:15.387,-1,-1,1506.95970695971,1.41611721611722,33.4411284807138
1743367755406,16:49:15.406,-1,-1,1504.7619047619,1.41611721611722,33.4411284807138
1743367755426,16:49:15.426,-1,-1,1505.49450549451,1.41611721611722,33.4411284807138
1743367755445,16:49:15.445,-1,-1,1493.04029304029,1.41611721611722,33.4411284807138
1743367755465,16:49:15.465,-1,-1,1473.26007326007,1.41611721611722,33.4411284807138
1743367755484,16:49:15.484,-1,-1,1452.74725274725,1.41611721611722,33.4411284807138
1743367755504,16:49:15.504,-1,-1,1427.83882783883,1.41611721611722,33.4411284807138
1743367755523,16:49:15.523,-1,-1,1410.98901098901,1.41611721611722,33.4411284807138
1743367755543,16:49:15.543,-1,-1,1396.336996337,1.41611721611722,33.4411284807138
1743367755562,16:49:15.562,-1,-1,1391.20879120879,1.41611721611722,33.4411284807138
1743367755582,16:49:15.582,-1,-1,1372.89377289377,1.41611721611722,33.4411284807138
1743367755601,16:49:15.601,-1,-1,1351.64835164835,1.41611721611722,33.4411284807138
1743367755621,16:49:15.621,-1,-1,1342.12454212454,1.41611721611722,33.4411284807138
1743367755640,16:49:15.640,-1,-1,1334.79853479853,1.41611721611722,33.4411284807138
1743367755660,16:49:15.660,-1,-1,1320.87912087912,1.41611721611722,33.4411284807138
1743367755679,16:49:15.679,-1,-1,1299.6336996337,1.41611721611722,33.4411284807138
1743367755699,16:49:15.699,-1,-1,1286.44688644689,1.41611721611722,33.4411284807138
1743367755718,16:49:15.718,-1,-1,1286.44688644689,1.41611721611722,33.4411284807138
1743367755738,16:49:15.738,-1,-1,1302.5641025641,1.41611721611722,33.4411284807138
1743367755757,16:49:15.757,-1,-1,1306.95970695971,1.41611721611722,33.4411284807138
1743367755777,16:49:15.777,-1,-1,1295.2380952381,1.41611721611722,33.4411284807138
1743367755796,16:49:15.796,-1,-1,1282.05128205128,1.41611721611722,33.4411284807138
1743367755816,16:49:15.816,-1,-1,1274.72527472527,1.41611721611722,33.4411284807138
1743367755835,16:49:15.835,-1,-1,1253.47985347985,1.41465201465201,33.4411284807138
1743367755855,16:49:15.855,-1,-1,1252.74725274725,1.41611721611722,33.4411284807138
1743367755874,16:49:15.874,-1,-1,1284.24908424908,1.41611721611722,33.4411284807138
1743367755894,16:49:15.894,-1,-1,1352.38095238095,1.41611721611722,33.4411284807138
1743367755913,16:49:15.913,-1,-1,1444.68864468864,1.41611721611722,33.4411284807138
1743367755933,16:49:15.933,-1,-1,1539.92673992674,1.41611721611722,33.4411284807138
1743367755952,16:49:15.952,-1,-1,1611.72161172161,1.41611721611722,33.4411284807138
1743367755972,16:49:15.972,-1,-1,1658.60805860806,1.41611721611722,33.4411284807138
1743367755991,16:49:15.991,-1,-1,1676.92307692308,1.41611721611722,33.4411284807138
1743367756011,16:49:16.011,-1,-1,1684.24908424908,1.41611721611722,33.4411284807138
1743367756030,16:49:16.030,-1,-1,1684.24908424908,1.41611721611722,33.4511351119727
1743367756050,16:49:16.050,-1,-1,1670.32967032967,1.41611721611722,33.4511351119727
1743367756069,16:49:16.069,-1,-1,1654.21245421245,1.41611721611722,33.4511351119727
1743367756089,16:49:16.089,-1,-1,1646.88644688645,1.41465201465201,33.4511351119727
1743367756108,16:49:16.108,-1,-1,1643.95604395604,1.41611721611722,33.4511351119727
1743367756128,16:49:16.128,-1,-1,1613.91941391941,1.41611721611722,33.4511351119727
1743367756147,16:49:16.147,-1,-1,1572.89377289377,1.41611721611722,33.4511351119727
1743367756167,16:49:16.167,-1,-1,1526.00732600733,1.41465201465201,33.4511351119727
1743367756186,16:49:16.186,-1,-1,1505.49450549451,1.41465201465201,33.4511351119727
1743367756206,16:49:16.206,-1,-1,1491.57509157509,1.41465201465201,33.4511351119727
1743367756225,16:49:16.225,-1,-1,1488.64468864469,1.41465201465201,33.4511351119727
1743367756245,16:49:16.245,-1,-1,1490.10989010989,1.41465201465201,33.4511351119727
1743367756264,16:49:16.264,-1,-1,1486.44688644689,1.41465201465201,33.4511351119727
1743367756284,16:49:16.284,-1,-1,1483.51648351648,1.41465201465201,33.4511351119727
1743367756303,16:49:16.303,-1,-1,1476.19047619048,1.41465201465201,33.4511351119727
1743367756323,16:49:16.323,-1,-1,1463.00366300366,1.41465201465201,33.4511351119727
1743367756342,16:49:16.342,-1,-1,1441.75824175824,1.41465201465201,33.4511351119727
1743367756362,16:49:16.362,-1,-1,1416.11721611722,1.41465201465201,33.4511351119727
1743367756381,16:49:16.381,-1,-1,1402.9304029304,1.41465201465201,33.4511351119727
1743367756401,16:49:16.401,-1,-1,1388.27838827839,1.41465201465201,33.4511351119727
1743367756420,16:49:16.420,-1,-1,1369.96336996337,1.41465201465201,33.4511351119727
1743367756440,16:49:16.440,-1,-1,1356.04395604396,1.41465201465201,33.4511351119727
1743367756459,16:49:16.459,-1,-1,1334.79853479853,1.41465201465201,33.4511351119727
1743367756479,16:49:16.479,-1,-1,1323.07692307692,1.41318681318681,33.4511351119727
1743367756498,16:49:16.498,-1,-1,1309.89010989011,1.41465201465201,33.4511351119727
1743367756518,16:49:16.518,-1,-1,1292.30769230769,1.41465201465201,33.4511351119727
1743367756537,16:49:16.537,-1,-1,1285.71428571429,1.41465201465201,33.4511351119727
1743367756557,16:49:16.557,-1,-1,1280.58608058608,1.41318681318681,33.4511351119727
1743367756576,16:49:16.576,-1,-1,1277.65567765568,1.41318681318681,33.4511351119727
1743367756596,16:49:16.596,-1,-1,1282.05128205128,1.41465201465201,33.4511351119727
1743367756615,16:49:16.615,-1,-1,1294.50549450549,1.41465201465201,33.4511351119727
1743367756635,16:49:16.635,-1,-1,1290.84249084249,1.41318681318681,33.4511351119727
1743367756654,16:49:16.654,-1,-1,1285.71428571429,1.41318681318681,33.4511351119727
1743367756674,16:49:16.674,-1,-1,1276.19047619048,1.41318681318681,33.4511351119727
1743367756693,16:49:16.693,-1,-1,1265.20146520147,1.41318681318681,33.4511351119727
1743367756713,16:49:16.713,-1,-1,1262.27106227106,1.41318681318681,33.4511351119727
1743367756732,16:49:16.732,-1,-1,1262.27106227106,1.41318681318681,33.4511351119727
1743367756752,16:49:16.752,-1,-1,1299.6336996337,1.41318681318681,33.4511351119727
1743367756771,16:49:16.771,-1,-1,1365.56776556777,1.41465201465201,33.4511351119727
1743367756791,16:49:16.791,-1,-1,1448.35164835165,1.41318681318681,33.4511351119727
1743367756810,16:49:16.810,-1,-1,1536.99633699634,1.41465201465201,33.4511351119727
1743367756830,16:49:16.830,-1,-1,1600.7326007326,1.41318681318681,33.4511351119727
1743367756849,16:49:16.849,-1,-1,1646.88644688645,1.41465201465201,33.4511351119727
1743367756869,16:49:16.869,-1,-1,1680.58608058608,1.41465201465201,33.4511351119727
1743367756888,16:49:16.888,-1,-1,1705.49450549451,1.41318681318681,33.4511351119727
1743367756908,16:49:16.908,-1,-1,1706.22710622711,1.41318681318681,33.4511351119727
1743367756927,16:49:16.927,-1,-1,1691.57509157509,1.41318681318681,33.4511351119727
1743367756947,16:49:16.947,-1,-1,1668.13186813187,1.41318681318681,33.4511351119727
1743367756966,16:49:16.966,-1,-1,1647.61904761905,1.41318681318681,33.4511351119727
1743367756986,16:49:16.986,-1,-1,1620.51282051282,1.41318681318681,33.4511351119727
1743367757005,16:49:17.005,-1,-1,1595.6043956044,1.41318681318681,33.4511351119727
1743367757025,16:49:17.025,-1,-1,1562.63736263736,1.41318681318681,33.4511351119727
1743367757044,16:49:17.044,-1,-1,1526.00732600733,1.41318681318681,33.4511351119727
1743367757064,16:49:17.064,-1,-1,1496.7032967033,1.41318681318681,33.4511351119727
1743367757083,16:49:17.083,-1,-1,1482.05128205128,1.41318681318681,33.4511351119727
1743367757103,16:49:17.103,-1,-1,1484.24908424908,1.41172161172161,33.4511351119727
1743367757122,16:49:17.122,-1,-1,1472.52747252747,1.41172161172161,33.4511351119727
1743367757142,16:49:17.142,-1,-1,1457.14285714286,1.41172161172161,33.4511351119727
1743367757161,16:49:17.161,-1,-1,1446.15384615385,1.41172161172161,33.4511351119727
1743367757181,16:49:17.181,-1,-1,1431.50183150183,1.41318681318681,33.4511351119727
1743367757200,16:49:17.200,-1,-1,1415.38461538462,1.41172161172161,33.4511351119727
1743367757220,16:49:17.220,-1,-1,1396.336996337,1.41172161172161,33.4511351119727
1743367757239,16:49:17.239,-1,-1,1383.88278388278,1.41172161172161,33.4511351119727
1743367757259,16:49:17.259,-1,-1,1375.82417582418,1.41172161172161,33.4511351119727
1743367757278,16:49:17.278,-1,-1,1365.56776556777,1.41172161172161,33.4511351119727
1743367757298,16:49:17.298,-1,-1,1342.12454212454,1.41172161172161,33.4511351119727
1743367757317,16:49:17.317,-1,-1,1318.68131868132,1.41172161172161,33.4511351119727
1743367757337,16:49:17.337,-1,-1,1301.0989010989,1.41025641025641,33.4511351119727
1743367757356,16:49:17.356,-1,-1,1292.30769230769,1.41172161172161,33.4511351119727
1743367757376,16:49:17.376,-1,-1,1283.51648351648,1.41025641025641,33.4511351119727
1743367757395,16:49:17.395,-1,-1,1267.39926739927,1.41172161172161,33.4511351119727
1743367757415,16:49:17.415,-1,-1,1250.54945054945,1.41172161172161,33.4511351119727
1743367757434,16:49:17.434,-1,-1,1254.94505494505,1.41025641025641,33.4511351119727
1743367757454,16:49:17.454,-1,-1,1269.59706959707,1.41025641025641,33.4511351119727
1743367757473,16:49:17.473,-1,-1,1277.65567765568,1.41025641025641,33.4511351119727
1743367757493,16:49:17.493,-1,-1,1282.78388278388,1.41025641025641,33.4511351119727
1743367757512,16:49:17.512,-1,-1,1281.31868131868,1.41025641025641,33.4511351119727
1743367757532,16:49:17.532,-1,-1,1264.46886446886,1.41025641025641,33.4511351119727
1743367757551,16:49:17.551,-1,-1,1239.56043956044,1.41025641025641,33.4511351119727
1743367757571,16:49:17.571,-1,-1,1216.84981684982,1.41025641025641,33.4511351119727
1743367757590,16:49:17.590,-1,-1,1220.51282051282,1.40879120879121,33.4511351119727
1743367757610,16:49:17.610,-1,-1,1241.75824175824,1.41025641025641,33.4511351119727
1743367757629,16:49:17.629,-1,-1,1265.20146520147,1.40879120879121,33.4511351119727
1743367757649,16:49:17.649,-1,-1,1323.80952380952,1.41025641025641,33.4511351119727
1743367757668,16:49:17.668,-1,-1,1408.05860805861,1.41025641025641,33.4511351119727
1743367757688,16:49:17.688,-1,-1,1485.71428571429,1.41025641025641,33.4511351119727
1743367757707,16:49:17.707,-1,-1,1551.64835164835,1.41025641025641,33.4511351119727
1743367757727,16:49:17.727,-1,-1,1597.0695970696,1.40879120879121,33.4511351119727
1743367757746,16:49:17.746,-1,-1,1616.11721611722,1.41025641025641,33.4511351119727
1743367757766,16:49:17.766,-1,-1,1639.56043956044,1.40879120879121,33.4511351119727
1743367757785,16:49:17.785,-1,-1,1643.95604395604,1.40879120879121,33.4511351119727
1743367757805,16:49:17.805,-1,-1,1630.03663003663,1.40879120879121,33.4511351119727
1743367757824,16:49:17.824,-1,-1,1610.25641025641,1.40879120879121,33.4511351119727
1743367757844,16:49:17.844,-1,-1,1590.47619047619,1.40879120879121,33.4511351119727
1743367757863,16:49:17.863,-1,-1,1565.56776556777,1.40879120879121,33.4511351119727
1743367757883,16:49:17.883,-1,-1,1542.85714285714,1.40879120879121,33.4511351119727
1743367757902,16:49:17.902,-1,-1,1515.75091575092,1.40879120879121,33.4511351119727
1743367757922,16:49:17.922,-1,-1,1487.17948717949,1.40879120879121,33.4511351119727
1743367757941,16:49:17.941,-1,-1,1481.31868131868,1.40879120879121,33.4511351119727
1743367757961,16:49:17.961,-1,-1,1467.39926739927,1.40732600732601,33.4511351119727
1743367757980,16:49:17.980,-1,-1,1452.01465201465,1.40879120879121,33.4511351119727
1743367758000,16:49:18.000,-1,-1,1444.68864468864,1.40879120879121,33.4511351119727
1743367758019,16:49:18.019,-1,-1,1432.23443223443,1.40879120879121,33.4461317992536
1743367758039,16:49:18.039,-1,-1,1420.51282051282,1.40732600732601,33.4461317992536
1743367758058,16:49:18.058,-1,-1,1404.3956043956,1.40732600732601,33.4461317992536
1743367758078,16:49:18.078,-1,-1,1395.6043956044,1.40879120879121,33.4461317992536
1743367758097,16:49:18.097,-1,-1,1383.88278388278,1.40879120879121,33.4461317992536
1743367758117,16:49:18.117,-1,-1,1345.78754578755,1.40732600732601,33.4461317992536
1743367758136,16:49:18.136,-1,-1,1322.34432234432,1.40879120879121,33.4461317992536
1743367758156,16:49:18.156,-1,-1,1306.22710622711,1.40879120879121,33.4461317992536
1743367758175,16:49:18.175,-1,-1,1281.31868131868,1.40732600732601,33.4461317992536
1743367758195,16:49:18.195,-1,-1,1262.27106227106,1.40732600732601,33.4461317992536
1743367758214,16:49:18.214,-1,-1,1264.46886446886,1.40732600732601,33.4461317992536
1743367758234,16:49:18.234,-1,-1,1276.19047619048,1.40732600732601,33.4461317992536
1743367758253,16:49:18.253,-1,-1,1276.92307692308,1.40732600732601,33.4461317992536
1743367758273,16:49:18.273,-1,-1,1273.99267399267,1.40732600732601,33.4461317992536
1743367758292,16:49:18.292,-1,-1,1272.52747252747,1.40732600732601,33.4461317992536
1743367758312,16:49:18.312,-1,-1,1262.27106227106,1.40732600732601,33.4461317992536
1743367758331,16:49:18.331,-1,-1,1249.81684981685,1.40732600732601,33.4461317992536
1743367758351,16:49:18.351,-1,-1,1250.54945054945,1.40732600732601,33.4461317992536
1743367758370,16:49:18.370,-1,-1,1260.07326007326,1.40732600732601,33.4461317992536
1743367758390,16:49:18.390,-1,-1,1253.47985347985,1.40732600732601,33.4461317992536
1743367758409,16:49:18.409,-1,-1,1245.42124542125,1.40586080586081,33.4461317992536
1743367758429,16:49:18.429,-1,-1,1227.83882783883,1.40732600732601,33.4461317992536
1743367758448,16:49:18.448,-1,-1,1218.31501831502,1.40732600732601,33.4461317992536
1743367758468,16:49:18.468,-1,-1,1216.11721611722,1.40732600732601,33.4461317992536
1743367758487,16:49:18.487,-1,-1,1217.58241758242,1.40586080586081,33.4461317992536
1743367758507,16:49:18.507,-1,-1,1233.69963369963,1.40586080586081,33.4461317992536
1743367758526,16:49:18.526,-1,-1,1279.12087912088,1.40586080586081,33.4461317992536
1743367758546,16:49:18.546,-1,-1,1356.77655677656,1.40586080586081,33.4461317992536
1743367758565,16:49:18.565,-1,-1,1432.96703296703,1.40586080586081,33.4461317992536
1743367758585,16:49:18.585,-1,-1,1490.10989010989,1.40586080586081,33.4461317992536
1743367758604,16:49:18.604,-1,-1,1532.60073260073,1.40586080586081,33.4461317992536
1743367758624,16:49:18.624,-1,-1,1557.50915750916,1.40586080586081,33.4461317992536
1743367758643,16:49:18.643,-1,-1,1564.83516483516,1.40586080586081,33.4461317992536
1743367758663,16:49:18.663,-1,-1,1561.90476190476,1.40586080586081,33.4461317992536
1743367758682,16:49:18.682,-1,-1,1546.52014652015,1.40586080586081,33.4461317992536
1743367758702,16:49:18.702,-1,-1,1528.20512820513,1.40586080586081,33.4461317992536
1743367758721,16:49:18.721,-1,-1,1515.01831501831,1.40586080586081,33.4461317992536
1743367758741,16:49:18.741,-1,-1,1487.17948717949,1.40586080586081,33.4461317992536
1743367758760,16:49:18.760,-1,-1,1451.28205128205,1.40586080586081,33.4461317992536
1743367758780,16:49:18.780,-1,-1,1409.52380952381,1.40586080586081,33.4461317992536
1743367758799,16:49:18.799,-1,-1,1391.20879120879,1.40586080586081,33.4461317992536
1743367758819,16:49:18.819,-1,-1,1391.94139194139,1.40586080586081,33.4461317992536
1743367758838,16:49:18.838,-1,-1,1403.663003663,1.4043956043956,33.4461317992536
1743367758858,16:49:18.858,-1,-1,1408.79120879121,1.4043956043956,33.4461317992536
1743367758877,16:49:18.877,-1,-1,1416.84981684982,1.4043956043956,33.4461317992536
1743367758897,16:49:18.897,-1,-1,1413.91941391941,1.4043956043956,33.4461317992536
1743367758916,16:49:18.916,-1,-1,1399.2673992674,1.4043956043956,33.4461317992536
1743367758936,16:49:18.936,-1,-1,1380.95238095238,1.4043956043956,33.4461317992536
1743367758955,16:49:18.955,-1,-1,1353.11355311355,1.4043956043956,33.4461317992536
1743367758975,16:49:18.975,-1,-1,1340.65934065934,1.4043956043956,33.4461317992536
1743367758994,16:49:18.994,-1,-1,1341.39194139194,1.4043956043956,33.4461317992536
1743367759014,16:49:19.014,-1,-1,1336.26373626374,1.4043956043956,33.456138418871
1743367759033,16:49:19.033,-1,-1,1326.73992673993,1.4043956043956,33.456138418871
1743367759053,16:49:19.053,-1,-1,1315.75091575092,1.4029304029304,33.456138418871
1743367759072,16:49:19.072,-1,-1,1312.82051282051,1.4029304029304,33.456138418871
1743367759092,16:49:19.092,-1,-1,1309.15750915751,1.4029304029304,33.456138418871
1743367759111,16:49:19.111,-1,-1,1296.7032967033,1.4029304029304,33.456138418871
1743367759131,16:49:19.131,-1,-1,1282.05128205128,1.4029304029304,33.456138418871
1743367759150,16:49:19.150,-1,-1,1281.31868131868,1.4014652014652,33.456138418871
1743367759170,16:49:19.170,-1,-1,1286.44688644689,1.4014652014652,33.456138418871
1743367759189,16:49:19.189,-1,-1,1288.64468864469,1.4014652014652,33.456138418871
1743367759209,16:49:19.209,-1,-1,1276.19047619048,1.4,33.456138418871
1743367759228,16:49:19.228,-1,-1,1271.79487179487,1.4,33.456138418871
1743367759248,16:49:19.248,-1,-1,1263.73626373626,1.4014652014652,33.456138418871
1743367759267,16:49:19.267,-1,-1,1254.21245421245,1.4,33.456138418871
1743367759287,16:49:19.287,-1,-1,1260.80586080586,1.4,33.456138418871
1743367759306,16:49:19.306,-1,-1,1290.84249084249,1.4,33.456138418871
1743367759326,16:49:19.326,-1,-1,1334.06593406593,1.4,33.456138418871
1743367759345,16:49:19.345,-1,-1,1397.8021978022,1.4,33.456138418871
1743367759365,16:49:19.365,-1,-1,1453.47985347985,1.4,33.456138418871
1743367759384,16:49:19.384,-1,-1,1481.31868131868,1.4,33.456138418871
1743367759404,16:49:19.404,-1,-1,1502.5641025641,1.4,33.456138418871
1743367759423,16:49:19.423,-1,-1,1509.15750915751,1.4,33.456138418871
1743367759443,16:49:19.443,-1,-1,1497.4358974359,1.4,33.456138418871
1743367759462,16:49:19.462,-1,-1,1486.44688644689,1.4,33.456138418871
1743367759482,16:49:19.482,-1,-1,1483.51648351648,1.4,33.456138418871
1743367759501,16:49:19.501,-1,-1,1479.12087912088,1.3985347985348,33.456138418871
1743367759521,16:49:19.521,-1,-1,1464.46886446886,1.3985347985348,33.456138418871
1743367759540,16:49:19.540,-1,-1,1431.50183150183,1.3985347985348,33.456138418871
1743367759560,16:49:19.560,-1,-1,1405.12820512821,1.3985347985348,33.456138418871
1743367759579,16:49:19.579,-1,-1,1381.68498168498,1.3985347985348,33.456138418871
1743367759599,16:49:19.599,-1,-1,1366.30036630037,1.3985347985348,33.456138418871
1743367759618,16:49:19.618,-1,-1,1378.02197802198,1.3985347985348,33.456138418871
1743367759638,16:49:19.638,-1,-1,1387.54578754579,1.3970695970696,33.456138418871
1743367759657,16:49:19.657,-1,-1,1387.54578754579,1.3970695970696,33.456138418871
1743367759677,16:49:19.677,-1,-1,1378.02197802198,1.3970695970696,33.456138418871
1743367759696,16:49:19.696,-1,-1,1378.75457875458,1.3985347985348,33.456138418871
1743367759716,16:49:19.716,-1,-1,1381.68498168498,1.3970695970696,33.456138418871
1743367759735,16:49:19.735,-1,-1,1370.69597069597,1.3970695970696,33.456138418871
1743367759755,16:49:19.755,-1,-1,1361.17216117216,1.3970695970696,33.456138418871
1743367759774,16:49:19.774,-1,-1,1344.32234432234,1.3970695970696,33.456138418871
1743367759794,16:49:19.794,-1,-1,1323.07692307692,1.3970695970696,33.456138418871
1743367759813,16:49:19.813,-1,-1,1304.0293040293,1.3970695970696,33.456138418871
1743367759833,16:49:19.833,-1,-1,1293.04029304029,1.3970695970696,33.456138418871
1743367759852,16:49:19.852,-1,-1,1284.24908424908,1.3970695970696,33.456138418871
1743367759872,16:49:19.872,-1,-1,1282.05128205128,1.3970695970696,33.456138418871
1743367759891,16:49:19.891,-1,-1,1289.37728937729,1.3970695970696,33.456138418871
1743367759911,16:49:19.911,-1,-1,1294.50549450549,1.3970695970696,33.456138418871
1743367759930,16:49:19.930,-1,-1,1293.04029304029,1.3970695970696,33.456138418871
1743367759950,16:49:19.950,-1,-1,1288.64468864469,1.3970695970696,33.456138418871
1743367759969,16:49:19.969,-1,-1,1273.26007326007,1.3970695970696,33.456138418871
1743367759989,16:49:19.989,-1,-1,1258.60805860806,1.3970695970696,33.456138418871
1743367760008,16:49:20.008,-1,-1,1247.61904761905,1.3970695970696,33.456138418871
1743367760028,16:49:20.028,-1,-1,1254.94505494505,1.3956043956044,33.456138418871
1743367760047,16:49:20.047,-1,-1,1269.59706959707,1.3956043956044,33.456138418871
1743367760067,16:49:20.067,-1,-1,1273.26007326007,1.3970695970696,33.456138418871
1743367760086,16:49:20.086,-1,-1,1297.4358974359,1.3956043956044,33.456138418871
1743367760106,16:49:20.106,-1,-1,1351.64835164835,1.3956043956044,33.456138418871
1743367760125,16:49:20.125,-1,-1,1413.18681318681,1.3956043956044,33.456138418871
1743367760145,16:49:20.145,-1,-1,1464.46886446886,1.3956043956044,33.456138418871
1743367760164,16:49:20.164,-1,-1,1510.62271062271,1.3956043956044,33.456138418871
1743367760184,16:49:20.184,-1,-1,1542.85714285714,1.3956043956044,33.456138418871
1743367760203,16:49:20.203,-1,-1,1552.38095238095,1.3956043956044,33.456138418871
1743367760223,16:49:20.223,-1,-1,1560.43956043956,1.39413919413919,33.456138418871
1743367760242,16:49:20.242,-1,-1,1557.50915750916,1.3956043956044,33.456138418871
1743367760262,16:49:20.262,-1,-1,1559.70695970696,1.39413919413919,33.456138418871
1743367760281,16:49:20.281,-1,-1,1553.84615384615,1.39413919413919,33.456138418871
1743367760301,16:49:20.301,-1,-1,1545.05494505494,1.39413919413919,33.456138418871
1743367760320,16:49:20.320,-1,-1,1519.41391941392,1.39413919413919,33.456138418871
1743367760340,16:49:20.340,-1,-1,1495.2380952381,1.39413919413919,33.456138418871
1743367760359,16:49:20.359,-1,-1,1471.79487179487,1.39413919413919,33.456138418871
1743367760379,16:49:20.379,-1,-1,1452.74725274725,1.39413919413919,33.456138418871
1743367760398,16:49:20.398,-1,-1,1449.81684981685,1.39413919413919,33.456138418871
1743367760418,16:49:20.418,-1,-1,1438.09523809524,1.39413919413919,33.456138418871
1743367760437,16:49:20.437,-1,-1,1434.43223443223,1.39413919413919,33.456138418871
1743367760457,16:49:20.457,-1,-1,1442.49084249084,1.39267399267399,33.456138418871
1743367760476,16:49:20.476,-1,-1,1443.95604395604,1.39267399267399,33.456138418871
1743367760496,16:49:20.496,-1,-1,1436.63003663004,1.39267399267399,33.456138418871
1743367760515,16:49:20.515,-1,-1,1425.64102564103,1.39267399267399,33.456138418871
1743367760535,16:49:20.535,-1,-1,1410.98901098901,1.39267399267399,33.456138418871
1743367760554,16:49:20.554,-1,-1,1390.47619047619,1.39267399267399,33.456138418871
1743367760574,16:49:20.574,-1,-1,1374.35897435897,1.39267399267399,33.456138418871
1743367760593,16:49:20.593,-1,-1,1370.69597069597,1.39267399267399,33.456138418871
1743367760613,16:49:20.613,-1,-1,1364.83516483516,1.39267399267399,33.456138418871
1743367760632,16:49:20.632,-1,-1,1353.84615384615,1.39120879120879,33.456138418871
1743367760652,16:49:20.652,-1,-1,1345.05494505494,1.39120879120879,33.456138418871
1743367760671,16:49:20.671,-1,-1,1336.99633699634,1.39120879120879,33.456138418871
1743367760691,16:49:20.691,-1,-1,1332.60073260073,1.39120879120879,33.456138418871
1743367760710,16:49:20.710,-1,-1,1332.60073260073,1.39120879120879,33.456138418871
1743367760730,16:49:20.730,-1,-1,1323.07692307692,1.39120879120879,33.456138418871
1743367760749,16:49:20.749,-1,-1,1318.68131868132,1.39120879120879,33.456138418871
1743367760769,16:49:20.769,-1,-1,1303.2967032967,1.39120879120879,33.456138418871
1743367760788,16:49:20.788,-1,-1,1297.4358974359,1.39120879120879,33.456138418871
1743367760808,16:49:20.808,-1,-1,1293.77289377289,1.39120879120879,33.456138418871
1743367760827,16:49:20.827,-1,-1,1284.98168498168,1.39120879120879,33.456138418871
1743367760847,16:49:20.847,-1,-1,1276.92307692308,1.39120879120879,33.456138418871
1743367760866,16:49:20.866,-1,-1,1274.72527472527,1.39120879120879,33.456138418871
1743367760886,16:49:20.886,-1,-1,1276.92307692308,1.38974358974359,33.456138418871
1743367760906,16:49:20.905,-1,-1,1278.38827838828,1.38974358974359,33.456138418871
1743367760925,16:49:20.925,-1,-1,1280.58608058608,1.38974358974359,33.456138418871
1743367760945,16:49:20.944,-1,-1,1302.5641025641,1.38974358974359,33.456138418871
1743367760964,16:49:20.964,-1,-1,1356.04395604396,1.38974358974359,33.456138418871
1743367760984,16:49:20.983,-1,-1,1406.59340659341,1.38974358974359,33.456138418871
1743367761003,16:49:21.003,-1,-1,1444.68864468864,1.38974358974359,33.456138418871
1743367761023,16:49:21.022,-1,-1,1471.79487179487,1.38974358974359,33.456138418871
1743367761042,16:49:21.042,-1,-1,1505.49450549451,1.38974358974359,33.456138418871
1743367761062,16:49:21.062,-1,-1,1529.67032967033,1.38974358974359,33.456138418871
1743367761081,16:49:21.081,-1,-1,1545.05494505494,1.38974358974359,33.456138418871
1743367761101,16:49:21.101,-1,-1,1569.96336996337,1.38974358974359,33.456138418871
1743367761120,16:49:21.120,-1,-1,1572.89377289377,1.38974358974359,33.456138418871
1743367761140,16:49:21.140,-1,-1,1553.11355311355,1.38974358974359,33.456138418871
1743367761159,16:49:21.159,-1,-1,1536.99633699634,1.38827838827839,33.456138418871
1743367761179,16:49:21.179,-1,-1,1521.61172161172,1.38827838827839,33.456138418871
1743367761198,16:49:21.198,-1,-1,1506.95970695971,1.38681318681319,33.456138418871
1743367761218,16:49:21.218,-1,-1,1501.0989010989,1.38681318681319,33.456138418871
1743367761237,16:49:21.237,-1,-1,1504.7619047619,1.38681318681319,33.456138418871
1743367761257,16:49:21.257,-1,-1,1500.3663003663,1.38681318681319,33.456138418871
1743367761276,16:49:21.276,-1,-1,1483.51648351648,1.38681318681319,33.456138418871
1743367761296,16:49:21.296,-1,-1,1465.20146520146,1.37751137751138,33.456138418871
1743367761315,16:49:21.315,-1,-1,1447.61904761905,1.37795537795538,33.456138418871
1743367761335,16:49:21.335,-1,-1,1432.96703296703,1.37795537795538,33.456138418871
1743367761354,16:49:21.354,-1,-1,1431.50183150183,1.37839937839938,33.456138418871
1743367761374,16:49:21.374,-1,-1,1430.76923076923,1.37839937839938,33.456138418871
1743367761393,16:49:21.393,-1,-1,1425.64102564103,1.37839937839938,33.456138418871
1743367761413,16:49:21.413,-1,-1,1418.31501831502,1.37839937839938,33.456138418871
1743367761432,16:49:21.432,-1,-1,1396.336996337,1.37839937839938,33.456138418871
1743367761452,16:49:21.452,-1,-1,1360.43956043956,1.37839937839938,33.456138418871
1743367761471,16:49:21.471,-1,-1,1334.79853479853,1.37795537795538,33.456138418871
1743367761491,16:49:21.491,-1,-1,1330.40293040293,1.37751137751138,33.456138418871
1743367761510,16:49:21.510,-1,-1,1337.72893772894,1.37751137751138,33.456138418871
1743367761530,16:49:21.530,-1,-1,1336.99633699634,1.37706737706738,33.456138418871
1743367761549,16:49:21.549,-1,-1,1334.06593406593,1.37617937617938,33.456138418871
1743367761569,16:49:21.569,-1,-1,1326.73992673993,1.37573537573538,33.456138418871
1743367761588,16:49:21.588,-1,-1,1320.14652014652,1.37529137529138,33.456138418871
1743367761608,16:49:21.608,-1,-1,1320.14652014652,1.37440337440337,33.456138418871
1743367761627,16:49:21.627,-1,-1,1306.95970695971,1.37395937395937,33.456138418871
1743367761647,16:49:21.647,-1,-1,1298.1684981685,1.37351537351537,33.456138418871
1743367761666,16:49:21.666,-1,-1,1297.4358974359,1.37307137307137,33.456138418871
1743367761686,16:49:21.686,-1,-1,1290.84249084249,1.37307137307137,33.456138418871
1743367761705,16:49:21.705,-1,-1,1282.78388278388,1.37218337218337,33.456138418871
1743367761725,16:49:21.725,-1,-1,1267.39926739927,1.37218337218337,33.456138418871
1743367761744,16:49:21.744,-1,-1,1252.01465201465,1.37173937173937,33.456138418871
1743367761764,16:49:21.764,-1,-1,1238.09523809524,1.37173937173937,33.456138418871
1743367761783,16:49:21.783,-1,-1,1228.57142857143,1.37173937173937,33.456138418871
1743367761803,16:49:21.803,-1,-1,1229.30402930403,1.37129537129537,33.456138418871
1743367761822,16:49:21.822,-1,-1,1258.60805860806,1.37085137085137,33.456138418871
1743367761842,16:49:21.842,-1,-1,1304.0293040293,1.37040737040737,33.456138418871
1743367761861,16:49:21.861,-1,-1,1351.64835164835,1.36996336996337,33.456138418871
1743367761881,16:49:21.881,-1,-1,1413.18681318681,1.36996336996337,33.456138418871
1743367761900,16:49:21.900,-1,-1,1457.87545787546,1.36951936951937,33.456138418871
1743367761920,16:49:21.920,-1,-1,1477.65567765568,1.36907536907537,33.456138418871
1743367761939,16:49:21.939,-1,-1,1497.4358974359,1.36907536907537,33.456138418871
1743367761959,16:49:21.959,-1,-1,1515.75091575092,1.36863136863137,33.456138418871
1743367761978,16:49:21.978,-1,-1,1527.47252747253,1.36818736818737,33.456138418871
1743367761998,16:49:21.998,-1,-1,1520.87912087912,1.36818736818737,33.4461317992536
1743367762017,16:49:22.017,-1,-1,1519.41391941392,1.36818736818737,33.4461317992536
1743367762037,16:49:22.037,-1,-1,1528.93772893773,1.36818736818737,33.4461317992536
1743367762056,16:49:22.056,-1,-1,1523.07692307692,1.36774336774337,33.4461317992536
1743367762076,16:49:22.076,-1,-1,1490.84249084249,1.36729936729937,33.4461317992536
1743367762095,16:49:22.095,-1,-1,1463.00366300366,1.36641136641137,33.4461317992536
1743367762115,16:49:22.115,-1,-1,1446.88644688645,1.36507936507937,33.4461317992536
1743367762134,16:49:22.134,-1,-1,1431.50183150183,1.36463536463536,33.4461317992536
1743367762154,16:49:22.154,-1,-1,1434.43223443223,1.36374736374736,33.4461317992536
1743367762173,16:49:22.173,-1,-1,1441.02564102564,1.36330336330336,33.4461317992536
1743367762193,16:49:22.193,-1,-1,1448.35164835165,1.36330336330336,33.4461317992536
1743367762212,16:49:22.212,-1,-1,1446.15384615385,1.36285936285936,33.4461317992536
1743367762232,16:49:22.232,-1,-1,1429.30402930403,1.36330336330336,33.4461317992536
1743367762251,16:49:22.251,-1,-1,1405.86080586081,1.36374736374736,33.4461317992536
1743367762271,16:49:22.271,-1,-1,1390.47619047619,1.36330336330336,33.4461317992536
1743367762290,16:49:22.290,-1,-1,1379.48717948718,1.36285936285936,33.4461317992536
1743367762310,16:49:22.310,-1,-1,1370.69597069597,1.36241536241536,33.4461317992536
1743367762329,16:49:22.329,-1,-1,1357.50915750916,1.36241536241536,33.4461317992536
1743367762349,16:49:22.349,-1,-1,1345.78754578755,1.36241536241536,33.4461317992536
1743367762368,16:49:22.368,-1,-1,1328.93772893773,1.36241536241536,33.4461317992536
1743367762388,16:49:22.388,-1,-1,1312.82051282051,1.36241536241536,33.4461317992536
1743367762407,16:49:22.407,-1,-1,1304.0293040293,1.36197136197136,33.4461317992536
1743367762427,16:49:22.427,-1,-1,1287.17948717949,1.36197136197136,33.4461317992536
1743367762446,16:49:22.446,-1,-1,1269.59706959707,1.36197136197136,33.4461317992536
1743367762466,16:49:22.466,-1,-1,1273.99267399267,1.36197136197136,33.4461317992536
1743367762485,16:49:22.485,-1,-1,1267.39926739927,1.36197136197136,33.4461317992536
1743367762505,16:49:22.505,-1,-1,1275.45787545788,1.36152736152736,33.4461317992536
1743367762524,16:49:22.524,-1,-1,1291.57509157509,1.36108336108336,33.4461317992536
1743367762544,16:49:22.544,-1,-1,1274.72527472527,1.36019536019536,33.4461317992536
1743367762563,16:49:22.563,-1,-1,1255.67765567766,1.35886335886336,33.4461317992536
1743367762583,16:49:22.583,-1,-1,1248.35164835165,1.35886335886336,33.4461317992536
1743367762602,16:49:22.602,-1,-1,1259.34065934066,1.35841935841936,33.4461317992536
1743367762622,16:49:22.622,-1,-1,1283.51648351648,1.35708735708736,33.4461317992536
1743367762641,16:49:22.641,-1,-1,1317.94871794872,1.35619935619936,33.4461317992536
1743367762661,16:49:22.661,-1,-1,1356.04395604396,1.35486735486735,33.4461317992536
1743367762680,16:49:22.680,-1,-1,1391.20879120879,1.35264735264735,33.4461317992536
1743367762700,16:49:22.700,-1,-1,1421.24542124542,1.35087135087135,33.4461317992536
1743367762719,16:49:22.719,-1,-1,1460.80586080586,1.34865134865135,33.4461317992536
1743367762739,16:49:22.739,-1,-1,1490.84249084249,1.34687534687535,33.4461317992536
1743367762758,16:49:22.758,-1,-1,1499.6336996337,1.34598734598735,33.4461317992536
1743367762778,16:49:22.778,-1,-1,1494.50549450549,1.34509934509935,33.4461317992536
1743367762797,16:49:22.797,-1,-1,1485.71428571429,1.34509934509935,33.4461317992536
1743367762817,16:49:22.817,-1,-1,1481.31868131868,1.34554334554335,33.4461317992536
1743367762836,16:49:22.836,-1,-1,1476.19047619048,1.34554334554335,33.4461317992536
1743367762856,16:49:22.856,-1,-1,1453.47985347985,1.34465534465534,33.4461317992536
1743367762875,16:49:22.875,-1,-1,1424.17582417582,1.34421134421134,33.4461317992536
1743367762895,16:49:22.895,-1,-1,1409.52380952381,1.34376734376734,33.4461317992536
1743367762914,16:49:22.914,-1,-1,1402.9304029304,1.34332334332334,33.4461317992536
1743367762934,16:49:22.934,-1,-1,1411.72161172161,1.34287934287934,33.4461317992536
1743367762953,16:49:22.953,-1,-1,1415.38461538462,1.34287934287934,33.4461317992536
1743367762973,16:49:22.973,-1,-1,1410.25641025641,1.34243534243534,33.4461317992536
1743367762992,16:49:22.992,-1,-1,1410.98901098901,1.34199134199134,33.456138418871
1743367763012,16:49:23.012,-1,-1,1393.40659340659,1.34199134199134,33.456138418871
1743367763031,16:49:23.031,-1,-1,1374.35897435897,1.34154734154734,33.456138418871
1743367763051,16:49:23.051,-1,-1,1362.63736263736,1.34110334110334,33.456138418871
1743367763070,16:49:23.070,-1,-1,1353.11355311355,1.34021534021534,33.456138418871
1743367763090,16:49:23.090,-1,-1,1331.86813186813,1.33888333888334,33.456138418871
1743367763109,16:49:23.109,-1,-1,1311.35531135531,1.33888333888334,33.456138418871
1743367763129,16:49:23.129,-1,-1,1306.22710622711,1.33888333888334,33.456138418871
1743367763148,16:49:23.148,-1,-1,1312.08791208791,1.33843933843934,33.456138418871
1743367763168,16:49:23.168,-1,-1,1309.15750915751,1.33799533799534,33.456138418871
1743367763187,16:49:23.187,-1,-1,1299.6336996337,1.33755133755134,33.456138418871
1743367763207,16:49:23.207,-1,-1,1294.50549450549,1.33666333666334,33.456138418871
1743367763226,16:49:23.226,-1,-1,1282.05128205128,1.33621933621934,33.456138418871
1743367763246,16:49:23.246,-1,-1,1291.57509157509,1.33533133533134,33.456138418871
1743367763265,16:49:23.265,-1,-1,1301.8315018315,1.33444333444333,33.456138418871
1743367763285,16:49:23.285,-1,-1,1300.3663003663,1.33355533355533,33.456138418871
1743367763304,16:49:23.304,-1,-1,1301.0989010989,1.33311133311133,33.456138418871
1743367763324,16:49:23.324,-1,-1,1293.04029304029,1.33266733266733,33.456138418871
1743367763343,16:49:23.343,-1,-1,1276.92307692308,1.33222333222333,33.456138418871
1743367763363,16:49:23.363,-1,-1,1268.13186813187,1.33222333222333,33.456138418871
1743367763382,16:49:23.382,-1,-1,1273.26007326007,1.33222333222333,33.456138418871
1743367763402,16:49:23.402,-1,-1,1290.84249084249,1.33266733266733,33.456138418871
1743367763421,16:49:23.421,-1,-1,1316.48351648352,1.33222333222333,33.456138418871
1743367763441,16:49:23.441,-1,-1,1349.45054945055,1.33177933177933,33.456138418871
1743367763460,16:49:23.460,-1,-1,1395.6043956044,1.33222333222333,33.456138418871
1743367763480,16:49:23.480,-1,-1,1442.49084249084,1.33266733266733,33.456138418871
1743367763499,16:49:23.499,-1,-1,1481.31868131868,1.33311133311133,33.456138418871
1743367763519,16:49:23.519,-1,-1,1498.9010989011,1.33399933399933,33.456138418871
1743367763538,16:49:23.538,-1,-1,1519.41391941392,1.33444333444333,33.456138418871
1743367763558,16:49:23.558,-1,-1,1531.86813186813,1.33488733488733,33.456138418871
1743367763577,16:49:23.577,-1,-1,1541.39194139194,1.33577533577534,33.456138418871
1743367763597,16:49:23.597,-1,-1,1542.85714285714,1.33621933621934,33.456138418871
1743367763616,16:49:23.616,-1,-1,1542.12454212454,1.33710733710734,33.456138418871
1743367763636,16:49:23.636,-1,-1,1541.39194139194,1.33666333666334,33.456138418871
1743367763655,16:49:23.655,-1,-1,1533.33333333333,1.33710733710734,33.456138418871
1743367763675,16:49:23.675,-1,-1,1502.5641025641,1.33755133755134,33.456138418871
1743367763694,16:49:23.694,-1,-1,1461.53846153846,1.33799533799534,33.456138418871
1743367763714,16:49:23.714,-1,-1,1440.29304029304,1.33843933843934,33.456138418871
1743367763733,16:49:23.733,-1,-1,1427.83882783883,1.33977133977134,33.456138418871
1743367763753,16:49:23.753,-1,-1,1429.30402930403,1.34154734154734,33.456138418871
1743367763772,16:49:23.772,-1,-1,1432.23443223443,1.34376734376734,33.456138418871
1743367763792,16:49:23.792,-1,-1,1436.63003663004,1.34554334554335,33.456138418871
1743367763811,16:49:23.811,-1,-1,1446.15384615385,1.34776334776335,33.456138418871
1743367763831,16:49:23.831,-1,-1,1439.56043956044,1.34998334998335,33.456138418871
1743367763850,16:49:23.850,-1,-1,1426.37362637363,1.35220335220335,33.456138418871
1743367763870,16:49:23.870,-1,-1,1416.84981684982,1.35442335442335,33.456138418871
1743367763889,16:49:23.889,-1,-1,1380.21978021978,1.35619935619936,33.456138418871
1743367763909,16:49:23.909,-1,-1,1363.36996336996,1.35797535797536,33.456138418871
1743367763928,16:49:23.928,-1,-1,1350.91575091575,1.35975135975136,33.456138418871
1743367763948,16:49:23.948,-1,-1,1335.53113553114,1.36197136197136,33.456138418871
1743367763967,16:49:23.967,-1,-1,1315.01831501831,1.36285936285936,33.456138418871
1743367763987,16:49:23.987,-1,-1,1311.35531135531,1.36419136419136,33.456138418871
1743367764006,16:49:24.006,-1,-1,1313.55311355311,1.36507936507937,33.456138418871
1743367764026,16:49:24.026,-1,-1,1318.68131868132,1.36596736596737,33.456138418871
1743367764045,16:49:24.045,-1,-1,1322.34432234432,1.36641136641137,33.456138418871
1743367764065,16:49:24.065,-1,-1,1323.07692307692,1.36729936729937,33.456138418871
1743367764084,16:49:24.084,-1,-1,1323.80952380952,1.36818736818737,33.456138418871
1743367764104,16:49:24.104,-1,-1,1315.75091575092,1.36907536907537,33.456138418871
1743367764123,16:49:24.123,-1,-1,1290.10989010989,1.36951936951937,33.456138418871
1743367764143,16:49:24.143,-1,-1,1270.32967032967,1.36996336996337,33.456138418871
1743367764162,16:49:24.162,-1,-1,1251.28205128205,1.37085137085137,33.456138418871
1743367764182,16:49:24.182,-1,-1,1245.42124542125,1.37173937173937,33.456138418871
1743367764201,16:49:24.201,-1,-1,1247.61904761905,1.37218337218337,33.456138418871
1743367764221,16:49:24.221,-1,-1,1282.05128205128,1.37262737262737,33.456138418871
1743367764240,16:49:24.240,-1,-1,1331.86813186813,1.37307137307137,33.456138418871
1743367764260,16:49:24.260,-1,-1,1390.47619047619,1.37351537351537,33.456138418871
1743367764279,16:49:24.279,-1,-1,1452.74725274725,1.37484737484737,33.456138418871
1743367764299,16:49:24.299,-1,-1,1501.8315018315,1.37573537573538,33.456138418871
1743367764318,16:49:24.318,-1,-1,1539.19413919414,1.37662337662338,33.456138418871
1743367764338,16:49:24.338,-1,-1,1556.77655677656,1.37706737706738,33.456138418871
1743367764357,16:49:24.357,-1,-1,1560.43956043956,1.37751137751138,33.456138418871
1743367764377,16:49:24.377,-1,-1,1569.96336996337,1.37795537795538,33.456138418871
1743367764396,16:49:24.396,-1,-1,1581.68498168498,1.37884337884338,33.456138418871
1743367764416,16:49:24.416,-1,-1,1585.34798534799,1.37973137973138,33.456138418871
1743367764435,16:49:24.435,-1,-1,1586.81318681319,1.38017538017538,33.456138418871
1743367764455,16:49:24.455,-1,-1,1578.75457875458,1.38106338106338,33.456138418871
1743367764474,16:49:24.474,-1,-1,1558.97435897436,1.38150738150738,33.456138418871
1743367764494,16:49:24.494,-1,-1,1536.99633699634,1.38195138195138,33.456138418871
1743367764513,16:49:24.513,-1,-1,1508.42490842491,1.38239538239538,33.456138418871
1743367764533,16:49:24.533,-1,-1,1477.65567765568,1.38283938283938,33.456138418871
1743367764552,16:49:24.552,-1,-1,1466.66666666667,1.38328338328338,33.456138418871
1743367764572,16:49:24.572,-1,-1,1472.52747252747,1.38372738372738,33.456138418871
1743367764591,16:49:24.591,-1,-1,1467.39926739927,1.38417138417138,33.456138418871
1743367764611,16:49:24.611,-1,-1,1457.87545787546,1.38461538461538,33.456138418871
1743367764630,16:49:24.630,-1,-1,1432.23443223443,1.38505938505939,33.456138418871
1743367764650,16:49:24.650,-1,-1,1406.59340659341,1.38550338550339,33.456138418871
1743367764669,16:49:24.669,-1,-1,1402.9304029304,1.38550338550339,33.456138418871
1743367764689,16:49:24.689,-1,-1,1400,1.38639138639139,33.456138418871
1743367764708,16:49:24.708,-1,-1,1390.47619047619,1.38683538683539,33.456138418871
1743367764728,16:49:24.728,-1,-1,1379.48717948718,1.38727938727939,33.456138418871
1743367764747,16:49:24.747,-1,-1,1359.70695970696,1.38816738816739,33.456138418871
1743367764767,16:49:24.767,-1,-1,1349.45054945055,1.38861138861139,33.456138418871
1743367764786,16:49:24.786,-1,-1,1342.12454212454,1.38949938949939,33.456138418871
1743367764806,16:49:24.806,-1,-1,1336.99633699634,1.38949938949939,33.456138418871
1743367764825,16:49:24.825,-1,-1,1319.41391941392,1.38994338994339,33.456138418871
1743367764845,16:49:24.845,-1,-1,1306.95970695971,1.39038739038739,33.456138418871
1743367764864,16:49:24.864,-1,-1,1311.35531135531,1.39038739038739,33.456138418871
1743367764884,16:49:24.884,-1,-1,1317.94871794872,1.39038739038739,33.456138418871
1743367764903,16:49:24.903,-1,-1,1316.48351648352,1.39083139083139,33.456138418871
1743367764923,16:49:24.923,-1,-1,1306.22710622711,1.39038739038739,33.456138418871
1743367764942,16:49:24.942,-1,-1,1292.30769230769,1.38949938949939,33.456138418871
1743367764962,16:49:24.962,-1,-1,1280.58608058608,1.38905538905539,33.456138418871
1743367764981,16:49:24.981,-1,-1,1272.52747252747,1.38949938949939,33.4661450152053
1743367765001,16:49:25.001,-1,-1,1284.24908424908,1.38949938949939,33.4661450152053
1743367765020,16:49:25.020,-1,-1,1290.84249084249,1.38905538905539,33.4661450152053
1743367765040,16:49:25.040,-1,-1,1290.84249084249,1.38816738816739,33.4661450152053
1743367765059,16:49:25.059,-1,-1,1282.78388278388,1.38683538683539,33.4661450152053
1743367765079,16:49:25.079,-1,-1,1287.17948717949,1.38594738594739,33.4661450152053
1743367765098,16:49:25.098,-1,-1,1317.21611721612,1.38417138417138,33.4661450152053
1743367765118,16:49:25.118,-1,-1,1374.35897435897,1.38328338328338,33.4661450152053
1743367765137,16:49:25.137,-1,-1,1427.83882783883,1.38239538239538,33.4661450152053
1743367765157,16:49:25.157,-1,-1,1475.45787545788,1.38150738150738,33.4661450152053
1743367765176,16:49:25.176,-1,-1,1505.49450549451,1.38061938061938,33.4661450152053
1743367765196,16:49:25.196,-1,-1,1528.93772893773,1.38017538017538,33.4661450152053
1743367765215,16:49:25.215,-1,-1,1546.52014652015,1.38017538017538,33.4661450152053
1743367765235,16:49:25.235,-1,-1,1553.84615384615,1.38017538017538,33.4661450152053
1743367765254,16:49:25.254,-1,-1,1545.78754578755,1.38017538017538,33.4661450152053
1743367765274,16:49:25.274,-1,-1,1545.78754578755,1.37973137973138,33.4661450152053
1743367765293,16:49:25.293,-1,-1,1542.12454212454,1.37973137973138,33.4661450152053
1743367765313,16:49:25.313,-1,-1,1528.20512820513,1.37928737928738,33.4661450152053
1743367765332,16:49:25.332,-1,-1,1509.89010989011,1.37884337884338,33.4661450152053
1743367765352,16:49:25.352,-1,-1,1487.91208791209,1.37973137973138,33.4661450152053
1743367765371,16:49:25.371,-1,-1,1468.13186813187,1.37973137973138,33.4661450152053
1743367765391,16:49:25.391,-1,-1,1442.49084249084,1.38017538017538,33.4661450152053
1743367765410,16:49:25.410,-1,-1,1428.57142857143,1.38017538017538,33.4661450152053
1743367765430,16:49:25.430,-1,-1,1416.84981684982,1.38106338106338,33.4661450152053
1743367765449,16:49:25.449,-1,-1,1413.91941391941,1.38195138195138,33.4661450152053
1743367765469,16:49:25.469,-1,-1,1419.78021978022,1.38328338328338,33.4661450152053
1743367765488,16:49:25.488,-1,-1,1419.78021978022,1.38372738372738,33.4661450152053
