RawTimestamp,LocalTime,HR_Direct,HR_Buffered,PPG,GSR,Temperature
1743433583944,11:06:23.944,-1,-1,0,-1,26.4608428180218
1743433583963,11:06:23.963,-1,-1,0,-1,26.4608428180218
1743433583983,11:06:23.983,-1,-1,0,0.273358482313705,26.4608428180218
1743433584002,11:06:24.002,-1,-1,0,0.273358482313705,26.4608428180218
1743433584022,11:06:24.022,-1,-1,0,0.273358482313705,26.4608428180218
1743433584041,11:06:24.041,-1,-1,0,0.273358482313705,26.4608428180218
1743433584061,11:06:24.061,-1,-1,0,0.273358482313705,26.4608428180218
1743433584080,11:06:24.080,-1,-1,0,0.252708963510356,26.4608428180218
1743433584100,11:06:24.100,-1,-1,0,0.252708963510356,26.4608428180218
1743433584119,11:06:24.119,-1,-1,0,0.252708963510356,26.4608428180218
1743433584139,11:06:24.139,-1,-1,0,0.252708963510356,26.4608428180218
1743433584158,11:06:24.158,-1,-1,0,0.252708963510356,26.4608428180218
1743433584178,11:06:24.178,-1,-1,0,0.258608058608059,26.4608428180218
1743433584197,11:06:24.197,-1,-1,0,0.258608058608059,26.4608428180218
1743433584217,11:06:24.217,-1,-1,0,0.258608058608059,26.4608428180218
1743433584236,11:06:24.236,-1,-1,0,0.258608058608059,26.4608428180218
1743433584256,11:06:24.256,-1,-1,0,0.258608058608059,26.4608428180218
1743433584275,11:06:24.275,-1,-1,0,0.269286269286269,26.4608428180218
1743433584295,11:06:24.295,-1,-1,0,0.27017427017427,26.4608428180218
1743433584314,11:06:24.314,-1,-1,0,0.270618270618271,26.4608428180218
1743433584334,11:06:24.334,-1,-1,0,0.270618270618271,26.4608428180218
1743433584353,11:06:24.353,-1,-1,0,0.27017427017427,26.4608428180218
1743433584373,11:06:24.373,-1,-1,0,0.26973026973027,26.4608428180218
1743433584392,11:06:24.392,-1,-1,0,0.269286269286269,26.4608428180218
1743433584412,11:06:24.412,-1,-1,0,0.26973026973027,26.4608428180218
1743433584431,11:06:24.431,-1,-1,0,0.270618270618271,26.4608428180218
1743433584451,11:06:24.451,-1,-1,0,0.271506271506271,26.4608428180218
1743433584470,11:06:24.470,-1,-1,0,0.270618270618271,26.4608428180218
1743433584490,11:06:24.490,-1,-1,0,0.268842268842269,26.4608428180218
1743433584509,11:06:24.509,-1,-1,0,0.268398268398268,26.4608428180218
1743433584529,11:06:24.529,-1,-1,0,0.268842268842269,26.4608428180218
1743433584548,11:06:24.548,-1,-1,0,0.268842268842269,26.4608428180218
1743433584568,11:06:24.568,-1,-1,0,0.265290265290265,26.4608428180218
1743433584587,11:06:24.587,-1,-1,0,0.261738261738262,26.4608428180218
1743433584607,11:06:24.607,-1,-1,0,0.264402264402264,26.4608428180218
1743433584626,11:06:24.626,-1,-1,0,0.267510267510268,26.4608428180218
1743433584646,11:06:24.646,-1,-1,0,0.271506271506271,26.4608428180218
1743433584665,11:06:24.665,-1,-1,0,0.248418248418248,26.4608428180218
1743433584685,11:06:24.685,-1,-1,0,0.225774225774226,26.4608428180218
1743433584704,11:06:24.704,-1,-1,0,0.216894216894217,26.4608428180218
1743433584724,11:06:24.724,-1,-1,0,0.202242202242202,26.4608428180218
1743433584743,11:06:24.743,-1,-1,0,0.21955821955822,26.4608428180218
1743433584763,11:06:24.763,-1,-1,0,0.213342213342213,26.4608428180218
1743433584782,11:06:24.782,-1,-1,0,0.181374181374181,26.4608428180218
1743433584802,11:06:24.802,-1,-1,0,0.19025419025419,26.4608428180218
1743433584821,11:06:24.821,-1,-1,0,0.227550227550227,26.4608428180218
1743433584841,11:06:24.841,-1,-1,0,0.24042624042624,26.4608428180218
1743433584860,11:06:24.860,-1,-1,0,0.243978243978244,32.4403477753513
1743433584880,11:06:24.880,-1,-1,0,0.245754245754246,32.4403477753513
1743433584899,11:06:24.899,-1,-1,0,0.247086247086247,32.4403477753513
1743433584919,11:06:24.919,-1,-1,0,0.249306249306249,32.4403477753513
1743433584938,11:06:24.938,-1,-1,0,0.251526251526252,32.4403477753513
1743433584958,11:06:24.958,-1,-1,0,0.252858252858253,32.4403477753513
1743433584977,11:06:24.977,-1,-1,0,0.253746253746254,32.4403477753513
1743433584997,11:06:24.997,-1,-1,0,0.255078255078255,32.4403477753513
1743433585016,11:06:25.016,-1,-1,0,0.255966255966256,32.4403477753513
1743433585036,11:06:25.036,-1,-1,0,0.255966255966256,32.4403477753513
1743433585055,11:06:25.055,-1,-1,0,0.255522255522255,32.4403477753513
1743433585075,11:06:25.075,-1,-1,0,0.254634254634255,32.4403477753513
1743433585094,11:06:25.094,-1,-1,0,0.253302253302253,32.4403477753513
1743433585114,11:06:25.114,-1,-1,27.8388278388278,0.252858252858253,32.4403477753513
1743433585133,11:06:25.133,-1,-1,359.70695970696,0.251970251970252,32.4403477753513
1743433585153,11:06:25.153,-1,-1,699.6336996337,0.251082251082251,32.4403477753513
1743433585172,11:06:25.172,-1,-1,939.194139194139,0.249306249306249,32.4403477753513
1743433585192,11:06:25.192,-1,-1,1088.64468864469,0.247086247086247,32.4403477753513
1743433585211,11:06:25.211,-1,-1,1165.56776556777,0.242202242202242,32.4403477753513
1743433585231,11:06:25.231,-1,-1,1178.75457875458,0.23953823953824,32.4403477753513
1743433585250,11:06:25.250,-1,-1,1187.54578754579,0.236874236874237,32.4403477753513
1743433585270,11:06:25.270,-1,-1,1179.48717948718,0.234654234654235,32.4403477753513
1743433585289,11:06:25.289,-1,-1,1161.90476190476,0.23021423021423,32.4403477753513
1743433585309,11:06:25.309,-1,-1,1136.99633699634,0.228438228438228,32.4403477753513
1743433585328,11:06:25.328,-1,-1,1134.79853479853,0.228438228438228,32.4403477753513
1743433585348,11:06:25.348,-1,-1,1141.39194139194,0.227550227550227,32.4403477753513
1743433585367,11:06:25.367,-1,-1,1147.98534798535,0.227550227550227,32.4403477753513
1743433585387,11:06:25.387,-1,-1,1151.64835164835,0.225774225774226,32.4403477753513
1743433585406,11:06:25.406,-1,-1,1151.64835164835,0.223554223554223,32.4403477753513
1743433585426,11:06:25.426,-1,-1,1156.04395604396,0.22044622044622,32.4403477753513
1743433585445,11:06:25.445,-1,-1,1197.8021978022,0.218226218226218,32.4403477753513
1743433585465,11:06:25.465,-1,-1,1268.86446886447,0.216450216450216,32.4403477753513
1743433585484,11:06:25.484,-1,-1,1342.12454212454,0.215118215118215,32.4403477753513
1743433585504,11:06:25.504,-1,-1,1408.79120879121,0.213786213786214,32.4403477753513
1743433585523,11:06:25.523,-1,-1,1450.54945054945,0.212454212454212,32.4403477753513
1743433585543,11:06:25.543,-1,-1,1465.20146520146,0.211122211122211,32.4403477753513
1743433585562,11:06:25.562,-1,-1,1465.20146520146,0.211122211122211,32.4403477753513
1743433585582,11:06:25.582,-1,-1,1467.39926739927,0.212010212010212,32.4403477753513
1743433585601,11:06:25.601,-1,-1,1473.99267399267,0.215562215562216,32.4403477753513
1743433585621,11:06:25.621,-1,-1,1460.07326007326,0.214674214674215,32.4403477753513
1743433585640,11:06:25.640,-1,-1,1443.95604395604,0.215118215118215,32.4403477753513
1743433585660,11:06:25.660,-1,-1,1438.09523809524,0.214674214674215,32.4403477753513
1743433585679,11:06:25.679,-1,-1,1412.45421245421,0.215118215118215,32.4403477753513
1743433585699,11:06:25.699,-1,-1,1369.96336996337,0.215562215562216,32.4403477753513
1743433585718,11:06:25.718,-1,-1,1321.61172161172,0.216894216894217,32.4403477753513
1743433585738,11:06:25.738,-1,-1,1303.2967032967,0.216006216006216,32.4403477753513
1743433585757,11:06:25.757,-1,-1,1287.91208791209,0.215562215562216,32.4403477753513
1743433585777,11:06:25.777,-1,-1,1293.04029304029,0.215118215118215,32.4403477753513
1743433585796,11:06:25.796,-1,-1,1299.6336996337,0.199134199134199,32.4403477753513
1743433585816,11:06:25.816,-1,-1,1306.22710622711,0.192474192474192,32.4403477753513
1743433585835,11:06:25.835,-1,-1,1302.5641025641,0.192474192474192,32.4403477753513
1743433585855,11:06:25.855,-1,-1,1289.37728937729,0.192918192918193,32.4503567349166
1743433585874,11:06:25.874,-1,-1,1280.58608058608,0.192918192918193,32.4503567349166
1743433585894,11:06:25.894,-1,-1,1280.58608058608,0.194694194694195,32.4503567349166
1743433585913,11:06:25.913,-1,-1,1267.39926739927,0.195582195582196,32.4503567349166
1743433585933,11:06:25.933,-1,-1,1247.61904761905,0.194694194694195,32.4503567349166
1743433585952,11:06:25.952,-1,-1,1223.44322344322,0.194694194694195,32.4503567349166
1743433585972,11:06:25.972,-1,-1,1211.72161172161,0.195582195582196,32.4503567349166
1743433585991,11:06:25.991,-1,-1,1202.9304029304,0.208014208014208,32.4503567349166
1743433586011,11:06:26.011,-1,-1,1195.6043956044,0.225774225774226,32.4503567349166
1743433586030,11:06:26.030,-1,-1,1181.68498168498,0.22977022977023,32.4503567349166
1743433586050,11:06:26.050,-1,-1,1165.56776556777,0.231546231546231,32.4503567349166
1743433586069,11:06:26.069,-1,-1,1175.82417582418,0.231990231990232,32.4503567349166
1743433586089,11:06:26.089,-1,-1,1180.95238095238,0.233766233766234,32.4503567349166
1743433586108,11:06:26.108,-1,-1,1178.75457875458,0.234210234210234,32.4503567349166
1743433586128,11:06:26.128,-1,-1,1167.76556776557,0.234210234210234,32.4503567349166
1743433586147,11:06:26.147,-1,-1,1153.84615384615,0.234654234654235,32.4503567349166
1743433586167,11:06:26.167,-1,-1,1141.39194139194,0.235542235542236,32.4503567349166
1743433586186,11:06:26.186,-1,-1,1152.38095238095,0.235098235098235,32.4503567349166
1743433586206,11:06:26.206,-1,-1,1160.43956043956,0.233766233766234,32.4503567349166
1743433586225,11:06:26.225,-1,-1,1178.02197802198,0.233322233322233,32.4503567349166
1743433586245,11:06:26.245,-1,-1,1197.0695970696,0.232878232878233,32.4503567349166
1743433586264,11:06:26.264,-1,-1,1232.96703296703,0.233322233322233,32.4503567349166
1743433586284,11:06:26.284,-1,-1,1286.44688644689,0.233322233322233,32.4503567349166
1743433586303,11:06:26.303,-1,-1,1364.83516483516,0.233322233322233,32.4503567349166
1743433586323,11:06:26.323,-1,-1,1427.10622710623,0.233766233766234,32.4503567349166
1743433586342,11:06:26.342,-1,-1,1468.86446886447,0.234210234210234,32.4503567349166
1743433586362,11:06:26.362,-1,-1,1506.95970695971,0.234654234654235,32.4503567349166
1743433586381,11:06:26.381,-1,-1,1536.99633699634,0.235098235098235,32.4503567349166
1743433586401,11:06:26.401,-1,-1,1545.05494505494,0.235542235542236,32.4503567349166
1743433586420,11:06:26.420,-1,-1,1528.93772893773,0.235542235542236,32.4503567349166
1743433586440,11:06:26.440,-1,-1,1527.47252747253,0.235542235542236,32.4503567349166
1743433586459,11:06:26.459,-1,-1,1523.80952380952,0.235542235542236,32.4503567349166
1743433586479,11:06:26.479,-1,-1,1501.8315018315,0.235098235098235,32.4503567349166
1743433586498,11:06:26.498,-1,-1,1468.86446886447,0.235542235542236,32.4503567349166
1743433586518,11:06:26.518,-1,-1,1424.90842490842,0.235542235542236,32.4503567349166
1743433586537,11:06:26.537,-1,-1,1391.94139194139,0.235098235098235,32.4503567349166
1743433586557,11:06:26.557,-1,-1,1353.11355311355,0.234654234654235,32.4503567349166
1743433586576,11:06:26.576,-1,-1,1338.46153846154,0.234654234654235,32.4503567349166
1743433586596,11:06:26.596,-1,-1,1341.39194139194,0.234654234654235,32.4503567349166
1743433586615,11:06:26.615,-1,-1,1343.58974358974,0.235098235098235,32.4503567349166
1743433586635,11:06:26.635,-1,-1,1341.39194139194,0.235098235098235,32.4503567349166
1743433586654,11:06:26.654,-1,-1,1337.72893772894,0.235542235542236,32.4503567349166
1743433586674,11:06:26.674,-1,-1,1329.67032967033,0.235542235542236,32.4503567349166
1743433586693,11:06:26.693,-1,-1,1327.47252747253,0.236430236430236,32.4503567349166
1743433586713,11:06:26.713,-1,-1,1321.61172161172,0.237318237318237,32.4503567349166
1743433586732,11:06:26.732,-1,-1,1304.0293040293,0.237762237762238,32.4503567349166
1743433586752,11:06:26.752,-1,-1,1271.06227106227,0.237318237318237,32.4503567349166
1743433586771,11:06:26.771,-1,-1,1260.07326007326,0.237762237762238,32.4503567349166
1743433586791,11:06:26.791,-1,-1,1270.32967032967,0.237318237318237,32.4503567349166
1743433586810,11:06:26.810,-1,-1,1266.66666666667,0.236874236874237,32.4503567349166
1743433586830,11:06:26.830,-1,-1,1252.01465201465,0.235542235542236,32.4503567349166
1743433586849,11:06:26.849,-1,-1,1254.21245421245,0.236430236430236,32.4553612059681
1743433586869,11:06:26.869,-1,-1,1247.61904761905,0.237762237762238,32.4553612059681
1743433586888,11:06:26.888,-1,-1,1217.58241758242,0.23953823953824,32.4553612059681
1743433586908,11:06:26.908,-1,-1,1207.32600732601,0.241758241758242,32.4553612059681
1743433586927,11:06:26.927,-1,-1,1212.45421245421,0.242202242202242,32.4553612059681
1743433586947,11:06:26.947,-1,-1,1215.38461538462,0.242202242202242,32.4553612059681
1743433586966,11:06:26.966,-1,-1,1214.65201465201,0.242202242202242,32.4553612059681
1743433586986,11:06:26.986,-1,-1,1214.65201465201,0.241314241314241,32.4553612059681
1743433587005,11:06:27.005,-1,-1,1204.3956043956,0.244866244866245,32.4553612059681
1743433587025,11:06:27.025,-1,-1,1206.59340659341,0.253746253746254,32.4553612059681
1743433587044,11:06:27.044,-1,-1,1205.86080586081,0.258186258186258,32.4553612059681
1743433587064,11:06:27.064,-1,-1,1194.87179487179,0.259518259518259,32.4553612059681
1743433587083,11:06:27.083,-1,-1,1180.21978021978,0.26040626040626,32.4553612059681
1743433587103,11:06:27.103,-1,-1,1188.27838827839,0.26040626040626,32.4553612059681
1743433587122,11:06:27.122,-1,-1,1200,0.26040626040626,32.4553612059681
1743433587142,11:06:27.142,-1,-1,1221.97802197802,0.26040626040626,32.4553612059681
1743433587161,11:06:27.161,-1,-1,1254.21245421245,0.260850260850261,32.4553612059681
1743433587181,11:06:27.181,-1,-1,1312.82051282051,0.261294261294261,32.4553612059681
1743433587200,11:06:27.200,-1,-1,1375.82417582418,0.261294261294261,32.4553612059681
1743433587220,11:06:27.220,-1,-1,1428.57142857143,0.261294261294261,32.4553612059681
1743433587239,11:06:27.239,-1,-1,1474.72527472527,0.261294261294261,32.4553612059681
1743433587259,11:06:27.259,-1,-1,1510.62271062271,0.260850260850261,32.4553612059681
1743433587278,11:06:27.278,-1,-1,1541.39194139194,0.260850260850261,32.4553612059681
1743433587298,11:06:27.298,-1,-1,1548.71794871795,0.261294261294261,32.4553612059681
1743433587317,11:06:27.317,-1,-1,1542.12454212454,0.261294261294261,32.4553612059681
1743433587337,11:06:27.337,-1,-1,1544.32234432234,0.261294261294261,32.4553612059681
1743433587356,11:06:27.356,-1,-1,1544.32234432234,0.261294261294261,32.4553612059681
1743433587376,11:06:27.376,-1,-1,1539.19413919414,0.261294261294261,32.4553612059681
1743433587395,11:06:27.395,-1,-1,1512.82051282051,0.261294261294261,32.4553612059681
1743433587415,11:06:27.415,-1,-1,1470.32967032967,0.263070263070263,32.4553612059681
1743433587434,11:06:27.434,-1,-1,1419.04761904762,0.263070263070263,32.4553612059681
1743433587454,11:06:27.454,-1,-1,1375.82417582418,0.263070263070263,32.4553612059681
1743433587473,11:06:27.473,-1,-1,1354.57875457875,0.263070263070263,32.4553612059681
1743433587493,11:06:27.493,-1,-1,1350.91575091575,0.262626262626263,32.4553612059681
1743433587512,11:06:27.512,-1,-1,1342.85714285714,0.263070263070263,32.4553612059681
1743433587532,11:06:27.532,-1,-1,1333.33333333333,0.263958263958264,32.4553612059681
1743433587551,11:06:27.551,-1,-1,1327.47252747253,0.264846264846265,32.4553612059681
1743433587571,11:06:27.571,-1,-1,1323.80952380952,0.265734265734266,32.4553612059681
1743433587590,11:06:27.590,-1,-1,1315.01831501831,0.266178266178266,32.4553612059681
1743433587610,11:06:27.610,-1,-1,1319.41391941392,0.266622266622267,32.4553612059681
1743433587629,11:06:27.629,-1,-1,1310.62271062271,0.267066267066267,32.4553612059681
1743433587649,11:06:27.649,-1,-1,1287.91208791209,0.267066267066267,32.4553612059681
1743433587668,11:06:27.668,-1,-1,1262.27106227106,0.267066267066267,32.4553612059681
1743433587688,11:06:27.688,-1,-1,1254.21245421245,0.267066267066267,32.4553612059681
1743433587707,11:06:27.707,-1,-1,1257.14285714286,0.267066267066267,32.4553612059681
1743433587727,11:06:27.727,-1,-1,1264.46886446886,0.266178266178266,32.4553612059681
1743433587746,11:06:27.746,-1,-1,1252.01465201465,0.266178266178266,32.4553612059681
1743433587766,11:06:27.766,-1,-1,1241.75824175824,0.266178266178266,32.4553612059681
1743433587785,11:06:27.785,-1,-1,1240.29304029304,0.266178266178266,32.4553612059681
1743433587805,11:06:27.805,-1,-1,1238.09523809524,0.266178266178266,32.4553612059681
1743433587824,11:06:27.824,-1,-1,1234.43223443223,0.265734265734266,32.4553612059681
1743433587844,11:06:27.844,-1,-1,1216.84981684982,0.265734265734266,32.4503567349166
1743433587863,11:06:27.863,-1,-1,1214.65201465201,0.265734265734266,32.4503567349166
1743433587883,11:06:27.883,-1,-1,1219.04761904762,0.265734265734266,32.4503567349166
1743433587902,11:06:27.902,-1,-1,1223.44322344322,0.265734265734266,32.4503567349166
1743433587922,11:06:27.922,-1,-1,1232.96703296703,0.265290265290265,32.4503567349166
1743433587941,11:06:27.941,-1,-1,1225.64102564103,0.264846264846265,32.4503567349166
1743433587961,11:06:27.961,-1,-1,1224.17582417582,0.264846264846265,32.4503567349166
1743433587980,11:06:27.980,-1,-1,1222.71062271062,0.264846264846265,32.4503567349166
1743433588000,11:06:28.000,-1,-1,1228.57142857143,0.265290265290265,32.4503567349166
1743433588019,11:06:28.019,-1,-1,1229.30402930403,0.265290265290265,32.4503567349166
1743433588039,11:06:28.039,-1,-1,1232.23443223443,0.265290265290265,32.4503567349166
1743433588058,11:06:28.058,-1,-1,1245.42124542125,0.264846264846265,32.4503567349166
1743433588078,11:06:28.078,-1,-1,1274.72527472527,0.264846264846265,32.4503567349166
1743433588097,11:06:28.097,-1,-1,1326.00732600733,0.264846264846265,32.4503567349166
1743433588117,11:06:28.117,-1,-1,1396.336996337,0.264846264846265,32.4503567349166
1743433588136,11:06:28.136,-1,-1,1473.99267399267,0.264846264846265,32.4503567349166
1743433588156,11:06:28.156,-1,-1,1528.93772893773,0.264846264846265,32.4503567349166
1743433588175,11:06:28.175,-1,-1,1561.90476190476,0.264402264402264,32.4503567349166
1743433588195,11:06:28.195,-1,-1,1572.16117216117,0.264402264402264,32.4503567349166
1743433588214,11:06:28.214,-1,-1,1558.24175824176,0.264402264402264,32.4503567349166
1743433588234,11:06:28.234,-1,-1,1545.78754578755,0.264402264402264,32.4503567349166
1743433588253,11:06:28.253,-1,-1,1539.92673992674,0.264402264402264,32.4503567349166
1743433588273,11:06:28.273,-1,-1,1525.27472527473,0.263958263958264,32.4503567349166
1743433588292,11:06:28.292,-1,-1,1503.2967032967,0.263514263514264,32.4503567349166
1743433588312,11:06:28.312,-1,-1,1464.46886446886,0.263514263514264,32.4503567349166
1743433588331,11:06:28.331,-1,-1,1413.91941391941,0.263514263514264,32.4503567349166
1743433588351,11:06:28.351,-1,-1,1383.15018315018,0.263514263514264,32.4503567349166
1743433588370,11:06:28.370,-1,-1,1372.16117216117,0.263514263514264,32.4503567349166
1743433588390,11:06:28.390,-1,-1,1369.23076923077,0.263070263070263,32.4503567349166
1743433588409,11:06:28.409,-1,-1,1374.35897435897,0.262626262626263,32.4503567349166
1743433588429,11:06:28.429,-1,-1,1378.02197802198,0.262626262626263,32.4503567349166
1743433588448,11:06:28.448,-1,-1,1371.42857142857,0.262182262182262,32.4503567349166
1743433588468,11:06:28.468,-1,-1,1368.49816849817,0.262182262182262,32.4503567349166
1743433588487,11:06:28.487,-1,-1,1364.10256410256,0.262182262182262,32.4503567349166
1743433588507,11:06:28.507,-1,-1,1356.04395604396,0.261738261738262,32.4503567349166
1743433588526,11:06:28.526,-1,-1,1342.85714285714,0.261294261294261,32.4503567349166
1743433588546,11:06:28.546,-1,-1,1326.00732600733,0.260850260850261,32.4503567349166
1743433588565,11:06:28.565,-1,-1,1298.1684981685,0.261294261294261,32.4503567349166
1743433588585,11:06:28.585,-1,-1,1287.17948717949,0.260850260850261,32.4503567349166
1743433588604,11:06:28.604,-1,-1,1272.52747252747,0.260850260850261,32.4503567349166
1743433588624,11:06:28.624,-1,-1,1261.53846153846,0.26040626040626,32.4503567349166
1743433588643,11:06:28.643,-1,-1,1261.53846153846,0.25996225996226,32.4503567349166
1743433588663,11:06:28.663,-1,-1,1257.14285714286,0.259518259518259,32.4503567349166
1743433588682,11:06:28.682,-1,-1,1246.15384615385,0.25996225996226,32.4503567349166
1743433588702,11:06:28.702,-1,-1,1246.15384615385,0.259518259518259,32.4503567349166
1743433588721,11:06:28.721,-1,-1,1238.09523809524,0.259074259074259,32.4503567349166
1743433588741,11:06:28.741,-1,-1,1227.10622710623,0.259074259074259,32.4503567349166
1743433588760,11:06:28.760,-1,-1,1224.17582417582,0.258630258630259,32.4503567349166
1743433588780,11:06:28.780,-1,-1,1235.89743589744,0.258630258630259,32.4503567349166
1743433588799,11:06:28.799,-1,-1,1254.21245421245,0.258186258186258,32.4503567349166
1743433588819,11:06:28.819,-1,-1,1258.60805860806,0.258630258630259,32.4503567349166
1743433588838,11:06:28.838,-1,-1,1249.08424908425,0.258186258186258,32.470374584198
1743433588858,11:06:28.858,-1,-1,1244.68864468864,0.258186258186258,32.470374584198
1743433588877,11:06:28.877,-1,-1,1247.61904761905,0.258186258186258,32.470374584198
1743433588897,11:06:28.897,-1,-1,1243.22344322344,0.258186258186258,32.470374584198
1743433588916,11:06:28.916,-1,-1,1240.29304029304,0.258186258186258,32.470374584198
1743433588936,11:06:28.936,-1,-1,1230.76923076923,0.257742257742258,32.470374584198
1743433588955,11:06:28.955,-1,-1,1241.02564102564,0.257298257298257,32.470374584198
1743433588975,11:06:28.975,-1,-1,1285.71428571429,0.257298257298257,32.470374584198
1743433588994,11:06:28.994,-1,-1,1345.05494505494,0.256854256854257,32.470374584198
1743433589014,11:06:29.014,-1,-1,1423.44322344322,0.256410256410256,32.470374584198
1743433589033,11:06:29.033,-1,-1,1479.85347985348,0.256854256854257,32.470374584198
1743433589053,11:06:29.053,-1,-1,1542.12454212454,0.256410256410256,32.470374584198
1743433589072,11:06:29.072,-1,-1,1577.28937728938,0.256410256410256,32.470374584198
1743433589092,11:06:29.092,-1,-1,1584.61538461538,0.255966255966256,32.470374584198
1743433589111,11:06:29.111,-1,-1,1572.16117216117,0.255966255966256,32.470374584198
1743433589131,11:06:29.131,-1,-1,1552.38095238095,0.255966255966256,32.470374584198
1743433589150,11:06:29.150,-1,-1,1527.47252747253,0.255966255966256,32.470374584198
1743433589170,11:06:29.170,-1,-1,1511.35531135531,0.255522255522255,32.470374584198
1743433589189,11:06:29.189,-1,-1,1492.30769230769,0.255522255522255,32.470374584198
1743433589209,11:06:29.209,-1,-1,1449.81684981685,0.255078255078255,32.470374584198
1743433589228,11:06:29.228,-1,-1,1433.69963369963,0.254634254634255,32.470374584198
1743433589248,11:06:29.248,-1,-1,1405.12820512821,0.254634254634255,32.470374584198
1743433589267,11:06:29.267,-1,-1,1388.27838827839,0.254634254634255,32.470374584198
1743433589287,11:06:29.287,-1,-1,1378.02197802198,0.254634254634255,32.470374584198
1743433589306,11:06:29.306,-1,-1,1378.75457875458,0.254190254190254,32.470374584198
1743433589326,11:06:29.326,-1,-1,1389.74358974359,0.253746253746254,32.470374584198
1743433589345,11:06:29.345,-1,-1,1375.82417582418,0.253746253746254,32.470374584198
1743433589365,11:06:29.365,-1,-1,1368.49816849817,0.253746253746254,32.470374584198
1743433589384,11:06:29.384,-1,-1,1365.56776556777,0.253746253746254,32.470374584198
1743433589404,11:06:29.404,-1,-1,1355.31135531136,0.253746253746254,32.470374584198
1743433589423,11:06:29.423,-1,-1,1342.85714285714,0.253302253302253,32.470374584198
1743433589443,11:06:29.443,-1,-1,1324.54212454212,0.252858252858253,32.470374584198
1743433589462,11:06:29.462,-1,-1,1307.69230769231,0.252858252858253,32.470374584198
1743433589482,11:06:29.482,-1,-1,1293.04029304029,0.252858252858253,32.470374584198
1743433589501,11:06:29.501,-1,-1,1282.05128205128,0.252858252858253,32.470374584198
1743433589521,11:06:29.521,-1,-1,1290.84249084249,0.252858252858253,32.470374584198
1743433589540,11:06:29.540,-1,-1,1306.22710622711,0.252414252414252,32.470374584198
1743433589560,11:06:29.560,-1,-1,1298.9010989011,0.251970251970252,32.470374584198
1743433589579,11:06:29.579,-1,-1,1293.77289377289,0.251970251970252,32.470374584198
1743433589599,11:06:29.599,-1,-1,1287.91208791209,0.251970251970252,32.470374584198
1743433589618,11:06:29.618,-1,-1,1289.37728937729,0.251970251970252,32.470374584198
1743433589638,11:06:29.638,-1,-1,1284.24908424908,0.251526251526252,32.470374584198
1743433589657,11:06:29.657,-1,-1,1267.39926739927,0.251082251082251,32.470374584198
1743433589677,11:06:29.677,-1,-1,1248.35164835165,0.250638250638251,32.470374584198
1743433589696,11:06:29.696,-1,-1,1242.49084249084,0.250638250638251,32.470374584198
1743433589716,11:06:29.716,-1,-1,1252.01465201465,0.250638250638251,32.470374584198
1743433589735,11:06:29.735,-1,-1,1260.80586080586,0.250638250638251,32.470374584198
1743433589755,11:06:29.755,-1,-1,1271.79487179487,0.25019425019425,32.470374584198
1743433589774,11:06:29.774,-1,-1,1326.00732600733,0.24975024975025,32.470374584198
1743433589794,11:06:29.794,-1,-1,1391.94139194139,0.24975024975025,32.470374584198
1743433589813,11:06:29.813,-1,-1,1453.47985347985,0.24975024975025,32.470374584198
1743433589833,11:06:29.833,-1,-1,1514.28571428571,0.253746253746254,32.4653701306088
1743433589852,11:06:29.852,-1,-1,1563.36996336996,0.268398268398268,32.4653701306088
1743433589872,11:06:29.872,-1,-1,1600.7326007326,0.269286269286269,32.4653701306088
1743433589891,11:06:29.891,-1,-1,1599.2673992674,0.268842268842269,32.4653701306088
1743433589911,11:06:29.911,-1,-1,1580.95238095238,0.268398268398268,32.4653701306088
1743433589930,11:06:29.930,-1,-1,1567.03296703297,0.268842268842269,32.4653701306088
1743433589950,11:06:29.950,-1,-1,1550.18315018315,0.268398268398268,32.4653701306088
1743433589969,11:06:29.969,-1,-1,1530.40293040293,0.267954267954268,32.4653701306088
1743433589989,11:06:29.989,-1,-1,1520.14652014652,0.267510267510268,32.4653701306088
1743433590008,11:06:30.008,-1,-1,1489.37728937729,0.267066267066267,32.4653701306088
1743433590028,11:06:30.028,-1,-1,1463.00366300366,0.266622266622267,32.4653701306088
1743433590047,11:06:30.047,-1,-1,1443.22344322344,0.266622266622267,32.4653701306088
1743433590067,11:06:30.067,-1,-1,1419.04761904762,0.266178266178266,32.4653701306088
1743433590086,11:06:30.086,-1,-1,1409.52380952381,0.266178266178266,32.4653701306088
1743433590106,11:06:30.106,-1,-1,1402.1978021978,0.265290265290265,32.4653701306088
1743433590125,11:06:30.125,-1,-1,1402.9304029304,0.264846264846265,32.4653701306088
1743433590145,11:06:30.145,-1,-1,1409.52380952381,0.264402264402264,32.4653701306088
1743433590164,11:06:30.164,-1,-1,1414.65201465201,0.264402264402264,32.4653701306088
1743433590184,11:06:30.184,-1,-1,1408.05860805861,0.264402264402264,32.4653701306088
1743433590203,11:06:30.203,-1,-1,1386.08058608059,0.263958263958264,32.4653701306088
1743433590223,11:06:30.223,-1,-1,1364.83516483516,0.263514263514264,32.4653701306088
1743433590242,11:06:30.242,-1,-1,1353.11355311355,0.263070263070263,32.4653701306088
1743433590262,11:06:30.262,-1,-1,1338.46153846154,0.262626262626263,32.4653701306088
1743433590281,11:06:30.281,-1,-1,1332.60073260073,0.262626262626263,32.4653701306088
1743433590301,11:06:30.301,-1,-1,1331.86813186813,0.262626262626263,32.4653701306088
1743433590320,11:06:30.320,-1,-1,1325.27472527473,0.262182262182262,32.4653701306088
1743433590340,11:06:30.340,-1,-1,1316.48351648352,0.261738261738262,32.4653701306088
1743433590359,11:06:30.359,-1,-1,1309.15750915751,0.260850260850261,32.4653701306088
1743433590379,11:06:30.379,-1,-1,1306.22710622711,0.26040626040626,32.4653701306088
1743433590398,11:06:30.398,-1,-1,1297.4358974359,0.26040626040626,32.4653701306088
1743433590418,11:06:30.418,-1,-1,1277.65567765568,0.26040626040626,32.4653701306088
1743433590437,11:06:30.437,-1,-1,1279.12087912088,0.25996225996226,32.4653701306088
1743433590457,11:06:30.457,-1,-1,1282.78388278388,0.259074259074259,32.4653701306088
1743433590476,11:06:30.476,-1,-1,1279.12087912088,0.259074259074259,32.4653701306088
1743433590496,11:06:30.496,-1,-1,1283.51648351648,0.258630258630259,32.4653701306088
1743433590515,11:06:30.515,-1,-1,1282.78388278388,0.258630258630259,32.4653701306088
1743433590535,11:06:30.535,-1,-1,1284.98168498168,0.258186258186258,32.4653701306088
1743433590554,11:06:30.554,-1,-1,1271.06227106227,0.257742257742258,32.4653701306088
1743433590574,11:06:30.574,-1,-1,1287.91208791209,0.257298257298257,32.4653701306088
1743433590593,11:06:30.593,-1,-1,1335.53113553114,0.256854256854257,32.4653701306088
1743433590613,11:06:30.613,-1,-1,1408.05860805861,0.256410256410256,32.4653701306088
1743433590632,11:06:30.632,-1,-1,1485.71428571429,0.256410256410256,32.4653701306088
1743433590652,11:06:30.652,-1,-1,1549.45054945055,0.256410256410256,32.4653701306088
1743433590671,11:06:30.671,-1,-1,1602.9304029304,0.255966255966256,32.4653701306088
1743433590691,11:06:30.691,-1,-1,1640.29304029304,0.255522255522255,32.4653701306088
1743433590710,11:06:30.710,-1,-1,1646.88644688645,0.255078255078255,32.4653701306088
1743433590730,11:06:30.730,-1,-1,1631.50183150183,0.255078255078255,32.4653701306088
1743433590749,11:06:30.749,-1,-1,1613.91941391941,0.255078255078255,32.4653701306088
1743433590769,11:06:30.769,-1,-1,1592.67399267399,0.254634254634255,32.4653701306088
1743433590788,11:06:30.788,-1,-1,1580.21978021978,0.254634254634255,32.4653701306088
1743433590808,11:06:30.808,-1,-1,1558.97435897436,0.253746253746254,32.4653701306088
1743433590827,11:06:30.827,-1,-1,1542.85714285714,0.253746253746254,32.4653701306088
1743433590847,11:06:30.847,-1,-1,1511.35531135531,0.253746253746254,32.4653701306088
1743433590866,11:06:30.866,-1,-1,1493.77289377289,0.253746253746254,32.4653701306088
1743433590886,11:06:30.886,-1,-1,1479.85347985348,0.253746253746254,32.4653701306088
1743433590905,11:06:30.905,-1,-1,1463.73626373626,0.252858252858253,32.4653701306088
1743433590925,11:06:30.925,-1,-1,1460.07326007326,0.252414252414252,32.4653701306088
1743433590944,11:06:30.944,-1,-1,1454.21245421245,0.252414252414252,32.4653701306088
1743433590964,11:06:30.964,-1,-1,1460.07326007326,0.252414252414252,32.4653701306088
1743433590983,11:06:30.983,-1,-1,1462.27106227106,0.252414252414252,32.4653701306088
1743433591003,11:06:31.003,-1,-1,1458.60805860806,0.251970251970252,32.4653701306088
1743433591022,11:06:31.022,-1,-1,1449.08424908425,0.251526251526252,32.4653701306088
1743433591042,11:06:31.042,-1,-1,1420.51282051282,0.251082251082251,32.4653701306088
1743433591061,11:06:31.061,-1,-1,1396.336996337,0.250638250638251,32.4653701306088
1743433591081,11:06:31.081,-1,-1,1372.16117216117,0.251082251082251,32.4653701306088
1743433591100,11:06:31.100,-1,-1,1356.77655677656,0.250638250638251,32.4653701306088
1743433591120,11:06:31.120,-1,-1,1353.11355311355,0.250638250638251,32.4653701306088
1743433591139,11:06:31.139,-1,-1,1344.32234432234,0.25019425019425,32.4653701306088
1743433591159,11:06:31.159,-1,-1,1336.99633699634,0.24975024975025,32.4653701306088
1743433591178,11:06:31.178,-1,-1,1325.27472527473,0.24975024975025,32.4653701306088
1743433591198,11:06:31.198,-1,-1,1319.41391941392,0.24975024975025,32.4653701306088
1743433591217,11:06:31.217,-1,-1,1318.68131868132,0.24975024975025,32.4653701306088
1743433591237,11:06:31.237,-1,-1,1331.86813186813,0.249306249306249,32.4653701306088
1743433591256,11:06:31.256,-1,-1,1330.40293040293,0.248862248862249,32.4653701306088
1743433591276,11:06:31.276,-1,-1,1317.21611721612,0.248418248418248,32.4653701306088
1743433591295,11:06:31.295,-1,-1,1298.9010989011,0.248418248418248,32.4653701306088
1743433591315,11:06:31.315,-1,-1,1293.77289377289,0.248418248418248,32.4653701306088
1743433591334,11:06:31.334,-1,-1,1297.4358974359,0.248418248418248,32.4653701306088
1743433591354,11:06:31.354,-1,-1,1298.1684981685,0.248418248418248,32.4653701306088
1743433591373,11:06:31.373,-1,-1,1294.50549450549,0.247974247974248,32.4653701306088
1743433591393,11:06:31.393,-1,-1,1271.79487179487,0.247530247530248,32.4653701306088
1743433591412,11:06:31.412,-1,-1,1266.66666666667,0.247086247086247,32.4653701306088
1743433591432,11:06:31.432,-1,-1,1271.06227106227,0.247530247530248,32.4653701306088
1743433591451,11:06:31.451,-1,-1,1311.35531135531,0.247530247530248,32.4653701306088
1743433591471,11:06:31.471,-1,-1,1385.34798534799,0.247086247086247,32.4653701306088
1743433591490,11:06:31.490,-1,-1,1470.32967032967,0.246642246642247,32.4653701306088
1743433591510,11:06:31.510,-1,-1,1546.52014652015,0.246198246198246,32.4653701306088
1743433591529,11:06:31.529,-1,-1,1597.0695970696,0.246642246642247,32.4653701306088
1743433591549,11:06:31.549,-1,-1,1633.69963369963,0.246198246198246,32.4653701306088
1743433591568,11:06:31.568,-1,-1,1671.79487179487,0.246642246642247,32.4653701306088
1743433591588,11:06:31.588,-1,-1,1689.37728937729,0.246198246198246,32.4653701306088
1743433591607,11:06:31.607,-1,-1,1702.5641025641,0.245754245754246,32.4653701306088
1743433591627,11:06:31.627,-1,-1,1708.42490842491,0.245310245310245,32.4653701306088
1743433591646,11:06:31.646,-1,-1,1693.04029304029,0.245310245310245,32.4653701306088
1743433591666,11:06:31.666,-1,-1,1667.39926739927,0.245310245310245,32.4653701306088
1743433591685,11:06:31.685,-1,-1,1623.44322344322,0.245310245310245,32.4653701306088
1743433591705,11:06:31.705,-1,-1,1586.81318681319,0.245310245310245,32.4653701306088
1743433591724,11:06:31.724,-1,-1,1564.10256410256,0.244866244866245,32.4653701306088
1743433591744,11:06:31.744,-1,-1,1551.64835164835,0.244422244422244,32.4653701306088
1743433591763,11:06:31.763,-1,-1,1537.72893772894,0.244422244422244,32.4653701306088
1743433591783,11:06:31.783,-1,-1,1524.54212454212,0.244422244422244,32.4653701306088
1743433591802,11:06:31.802,-1,-1,1512.08791208791,0.244422244422244,32.4653701306088
1743433591822,11:06:31.822,-1,-1,1503.2967032967,0.243978243978244,32.470374584198
1743433591841,11:06:31.841,-1,-1,1496.7032967033,0.243534243534243,32.470374584198
1743433591861,11:06:31.861,-1,-1,1484.98168498168,0.243534243534243,32.470374584198
1743433591880,11:06:31.880,-1,-1,1483.51648351648,0.243534243534243,32.470374584198
1743433591900,11:06:31.900,-1,-1,1463.73626373626,0.243534243534243,32.470374584198
1743433591919,11:06:31.919,-1,-1,1431.50183150183,0.243534243534243,32.470374584198
1743433591939,11:06:31.939,-1,-1,1415.38461538462,0.243090243090243,32.470374584198
1743433591958,11:06:31.958,-1,-1,1398.5347985348,0.242646242646243,32.470374584198
1743433591978,11:06:31.978,-1,-1,1375.09157509157,0.242646242646243,32.470374584198
1743433591997,11:06:31.997,-1,-1,1349.45054945055,0.242646242646243,32.470374584198
1743433592017,11:06:32.017,-1,-1,1340.65934065934,0.242646242646243,32.470374584198
1743433592036,11:06:32.036,-1,-1,1347.98534798535,0.242646242646243,32.470374584198
1743433592056,11:06:32.056,-1,-1,1351.64835164835,0.242202242202242,32.470374584198
1743433592075,11:06:32.075,-1,-1,1346.52014652015,0.241758241758242,32.470374584198
1743433592095,11:06:32.095,-1,-1,1334.06593406593,0.241314241314241,32.470374584198
1743433592114,11:06:32.114,-1,-1,1317.94871794872,0.241758241758242,32.470374584198
1743433592134,11:06:32.134,65,-1,1311.35531135531,0.241758241758242,32.470374584198
1743433592153,11:06:32.153,65,-1,1309.89010989011,0.241758241758242,32.470374584198
1743433592173,11:06:32.173,65,-1,1316.48351648352,0.241314241314241,32.470374584198
1743433592192,11:06:32.192,65,-1,1318.68131868132,0.241314241314241,32.470374584198
1743433592212,11:06:32.212,65,-1,1311.35531135531,0.241314241314241,32.470374584198
1743433592231,11:06:32.231,65,-1,1314.28571428571,0.242202242202242,32.470374584198
1743433592251,11:06:32.251,65,-1,1302.5641025641,0.242646242646243,32.470374584198
1743433592270,11:06:32.270,65,-1,1292.30769230769,0.242646242646243,32.470374584198
1743433592290,11:06:32.290,65,-1,1301.0989010989,0.242202242202242,32.470374584198
1743433592309,11:06:32.309,65,-1,1322.34432234432,0.241758241758242,32.470374584198
1743433592329,11:06:32.329,65,-1,1368.49816849817,0.241758241758242,32.470374584198
1743433592348,11:06:32.348,65,-1,1447.61904761905,0.241758241758242,32.470374584198
1743433592368,11:06:32.368,65,-1,1539.92673992674,0.241758241758242,32.470374584198
1743433592387,11:06:32.387,65,-1,1618.31501831502,0.241758241758242,32.470374584198
1743433592407,11:06:32.407,65,-1,1682.78388278388,0.241758241758242,32.470374584198
1743433592426,11:06:32.426,65,-1,1728.93772893773,0.241314241314241,32.470374584198
1743433592446,11:06:32.446,65,-1,1753.11355311355,0.241314241314241,32.470374584198
1743433592465,11:06:32.465,65,-1,1753.11355311355,0.241314241314241,32.470374584198
1743433592485,11:06:32.485,65,-1,1731.86813186813,0.241314241314241,32.470374584198
1743433592504,11:06:32.504,65,-1,1715.75091575092,0.241314241314241,32.470374584198
1743433592524,11:06:32.524,65,-1,1698.1684981685,0.241314241314241,32.470374584198
1743433592543,11:06:32.543,65,-1,1670.32967032967,0.240870240870241,32.470374584198
1743433592563,11:06:32.563,65,-1,1636.63003663004,0.240870240870241,32.470374584198
1743433592582,11:06:32.582,65,-1,1590.47619047619,0.240870240870241,32.470374584198
1743433592602,11:06:32.602,65,-1,1555.31135531136,0.240870240870241,32.470374584198
1743433592621,11:06:32.621,65,-1,1531.86813186813,0.240870240870241,32.470374584198
1743433592641,11:06:32.641,65,-1,1513.55311355311,0.24042624042624,32.470374584198
1743433592660,11:06:32.660,65,-1,1501.0989010989,0.24042624042624,32.470374584198
1743433592680,11:06:32.680,65,-1,1498.1684981685,0.24042624042624,32.470374584198
1743433592699,11:06:32.699,65,-1,1487.91208791209,0.24042624042624,32.470374584198
1743433592719,11:06:32.719,65,-1,1485.71428571429,0.24042624042624,32.470374584198
1743433592738,11:06:32.738,65,-1,1498.9010989011,0.24042624042624,32.470374584198
1743433592758,11:06:32.758,65,-1,1489.37728937729,0.23998223998224,32.470374584198
1743433592777,11:06:32.777,65,-1,1471.06227106227,0.23953823953824,32.470374584198
1743433592797,11:06:32.797,65,-1,1445.42124542125,0.23953823953824,32.470374584198
1743433592816,11:06:32.816,65,-1,1424.90842490842,0.23998223998224,32.4653701306088
1743433592836,11:06:32.836,65,-1,1413.91941391941,0.23998223998224,32.4653701306088
1743433592855,11:06:32.855,65,-1,1405.86080586081,0.23998223998224,32.4653701306088
1743433592875,11:06:32.875,65,-1,1383.15018315018,0.23998223998224,32.4653701306088
1743433592894,11:06:32.894,65,-1,1356.77655677656,0.23953823953824,32.4653701306088
1743433592914,11:06:32.914,65,-1,1336.99633699634,0.23953823953824,32.4653701306088
1743433592933,11:06:32.933,65,-1,1320.14652014652,0.23953823953824,32.4653701306088
1743433592953,11:06:32.953,65,-1,1328.20512820513,0.23998223998224,32.4653701306088
1743433592972,11:06:32.972,65,-1,1329.67032967033,0.23953823953824,32.4653701306088
1743433592992,11:06:32.992,65,-1,1332.60073260073,0.23953823953824,32.4653701306088
1743433593011,11:06:33.011,65,-1,1323.07692307692,0.239094239094239,32.4653701306088
1743433593031,11:06:33.031,67,-1,1311.35531135531,0.23953823953824,32.4653701306088
1743433593050,11:06:33.050,67,-1,1299.6336996337,0.23953823953824,32.4653701306088
1743433593070,11:06:33.070,67,-1,1296.7032967033,0.239094239094239,32.4653701306088
1743433593089,11:06:33.089,67,-1,1297.4358974359,0.239094239094239,32.4653701306088
1743433593109,11:06:33.109,67,-1,1325.27472527473,0.238206238206238,32.4653701306088
1743433593128,11:06:33.128,67,-1,1389.01098901099,0.238206238206238,32.4653701306088
1743433593148,11:06:33.148,67,-1,1487.17948717949,0.238650238650239,32.4653701306088
1743433593167,11:06:33.167,67,-1,1578.75457875458,0.238650238650239,32.4653701306088
1743433593187,11:06:33.187,67,-1,1642.49084249084,0.238650238650239,32.4653701306088
1743433593207,11:06:33.206,67,-1,1672.52747252747,0.238650238650239,32.4653701306088
1743433593226,11:06:33.226,67,-1,1701.0989010989,0.237762237762238,32.4653701306088
1743433593246,11:06:33.245,67,-1,1709.15750915751,0.237762237762238,32.4653701306088
1743433593265,11:06:33.265,67,-1,1704.7619047619,0.237762237762238,32.4653701306088
1743433593285,11:06:33.284,67,-1,1687.17948717949,0.238206238206238,32.4653701306088
1743433593304,11:06:33.304,67,-1,1668.13186813187,0.238206238206238,32.4653701306088
1743433593324,11:06:33.323,67,-1,1638.82783882784,0.237762237762238,32.4653701306088
1743433593343,11:06:33.343,67,-1,1600,0.237318237318237,32.4653701306088
1743433593363,11:06:33.363,67,-1,1561.17216117216,0.237318237318237,32.4653701306088
1743433593382,11:06:33.382,67,-1,1532.60073260073,0.237318237318237,32.4653701306088
1743433593402,11:06:33.402,67,-1,1512.08791208791,0.237318237318237,32.4653701306088
1743433593421,11:06:33.421,67,-1,1501.0989010989,0.237318237318237,32.4653701306088
1743433593441,11:06:33.441,67,-1,1499.6336996337,0.237318237318237,32.4653701306088
1743433593460,11:06:33.460,67,-1,1489.37728937729,0.236874236874237,32.4653701306088
1743433593480,11:06:33.480,67,-1,1480.58608058608,0.236874236874237,32.4653701306088
1743433593499,11:06:33.499,67,-1,1476.19047619048,0.237318237318237,32.4653701306088
1743433593519,11:06:33.519,67,-1,1476.19047619048,0.237318237318237,32.4653701306088
1743433593538,11:06:33.538,67,-1,1457.14285714286,0.236874236874237,32.4653701306088
1743433593558,11:06:33.558,67,-1,1435.16483516484,0.236430236430236,32.4653701306088
1743433593577,11:06:33.577,67,-1,1419.04761904762,0.236430236430236,32.4653701306088
1743433593597,11:06:33.597,67,-1,1391.20879120879,0.236430236430236,32.4653701306088
1743433593616,11:06:33.616,67,-1,1369.96336996337,0.236430236430236,32.4653701306088
1743433593636,11:06:33.636,67,-1,1342.85714285714,0.236874236874237,32.4653701306088
1743433593655,11:06:33.655,67,-1,1342.85714285714,0.236874236874237,32.4653701306088
1743433593675,11:06:33.675,67,-1,1313.55311355311,0.235986235986236,32.4653701306088
1743433593694,11:06:33.694,67,-1,1315.75091575092,0.235986235986236,32.4653701306088
1743433593714,11:06:33.714,67,-1,1323.07692307692,0.235986235986236,32.4653701306088
1743433593733,11:06:33.733,67,-1,1323.07692307692,0.236430236430236,32.4653701306088
1743433593753,11:06:33.753,67,-1,1331.86813186813,0.236430236430236,32.4653701306088
1743433593772,11:06:33.772,67,-1,1323.80952380952,0.235986235986236,32.4653701306088
1743433593792,11:06:33.792,67,-1,1301.0989010989,0.235986235986236,32.4653701306088
1743433593811,11:06:33.811,67,-1,1287.91208791209,0.235542235542236,32.470374584198
1743433593831,11:06:33.831,67,-1,1283.51648351648,0.235986235986236,32.470374584198
1743433593850,11:06:33.850,67,-1,1275.45787545788,0.235986235986236,32.470374584198
1743433593870,11:06:33.870,67,-1,1271.06227106227,0.235986235986236,32.470374584198
1743433593889,11:06:33.889,67,-1,1293.77289377289,0.235986235986236,32.470374584198
1743433593909,11:06:33.909,67,-1,1361.90476190476,0.235542235542236,32.470374584198
1743433593928,11:06:33.928,67,-1,1469.59706959707,0.235098235098235,32.470374584198
1743433593948,11:06:33.948,67,-1,1566.30036630037,0.235098235098235,32.470374584198
1743433593967,11:06:33.967,67,-1,1641.02564102564,0.235098235098235,32.470374584198
1743433593987,11:06:33.987,67,-1,1699.6336996337,0.235542235542236,32.470374584198
1743433594006,11:06:34.006,67,-1,1732.60073260073,0.235098235098235,32.470374584198
1743433594026,11:06:34.026,67,-1,1746.52014652015,0.234654234654235,32.470374584198
1743433594045,11:06:34.045,67,-1,1747.25274725275,0.234654234654235,32.470374584198
1743433594065,11:06:34.065,67,-1,1734.79853479853,0.234654234654235,32.470374584198
1743433594084,11:06:34.084,67,-1,1712.08791208791,0.235098235098235,32.470374584198
1743433594104,11:06:34.104,67,-1,1680.58608058608,0.234654234654235,32.470374584198
1743433594123,11:06:34.123,67,-1,1650.54945054945,0.234654234654235,32.470374584198
1743433594143,11:06:34.143,67,-1,1602.9304029304,0.234210234210234,32.470374584198
1743433594162,11:06:34.162,67,-1,1554.57875457875,0.234210234210234,32.470374584198
1743433594182,11:06:34.182,67,-1,1517.94871794872,0.234210234210234,32.470374584198
1743433594201,11:06:34.201,67,-1,1486.44688644689,0.234654234654235,32.470374584198
1743433594221,11:06:34.221,67,-1,1454.21245421245,0.234210234210234,32.470374584198
1743433594240,11:06:34.240,67,-1,1438.09523809524,0.234210234210234,32.470374584198
1743433594260,11:06:34.260,67,-1,1432.96703296703,0.233766233766234,32.470374584198
1743433594279,11:06:34.279,67,-1,1432.23443223443,0.233766233766234,32.470374584198
1743433594299,11:06:34.299,67,-1,1416.84981684982,0.233766233766234,32.470374584198
1743433594318,11:06:34.318,67,-1,1389.01098901099,0.233766233766234,32.470374584198
1743433594338,11:06:34.338,67,-1,1380.21978021978,0.234210234210234,32.470374584198
1743433594357,11:06:34.357,67,-1,1372.16117216117,0.233766233766234,32.470374584198
1743433594377,11:06:34.377,67,-1,1347.98534798535,0.233766233766234,32.470374584198
1743433594396,11:06:34.396,67,-1,1329.67032967033,0.233322233322233,32.470374584198
1743433594416,11:06:34.416,67,-1,1320.87912087912,0.233766233766234,32.470374584198
1743433594435,11:06:34.435,67,-1,1313.55311355311,0.233766233766234,32.470374584198
1743433594455,11:06:34.455,67,-1,1293.77289377289,0.233766233766234,32.470374584198
1743433594474,11:06:34.474,67,-1,1277.65567765568,0.233322233322233,32.470374584198
1743433594494,11:06:34.494,67,-1,1260.07326007326,0.233322233322233,32.470374584198
1743433594513,11:06:34.513,67,-1,1254.94505494505,0.233322233322233,32.470374584198
1743433594533,11:06:34.533,67,-1,1252.01465201465,0.233322233322233,32.470374584198
1743433594552,11:06:34.552,67,-1,1243.22344322344,0.233322233322233,32.470374584198
1743433594572,11:06:34.572,67,-1,1241.02564102564,0.233322233322233,32.470374584198
1743433594591,11:06:34.591,67,-1,1238.09523809524,0.232878232878233,32.470374584198
1743433594611,11:06:34.611,67,-1,1231.50183150183,0.232878232878233,32.470374584198
1743433594630,11:06:34.630,67,-1,1217.58241758242,0.232878232878233,32.470374584198
1743433594650,11:06:34.650,77,-1,1221.97802197802,0.232878232878233,32.470374584198
1743433594669,11:06:34.669,77,-1,1227.10622710623,0.232878232878233,32.470374584198
1743433594689,11:06:34.689,77,-1,1227.10622710623,0.232434232434232,32.470374584198
1743433594708,11:06:34.708,77,-1,1232.23443223443,0.232434232434232,32.470374584198
1743433594728,11:06:34.728,77,-1,1286.44688644689,0.232434232434232,32.470374584198
1743433594747,11:06:34.747,77,-1,1385.34798534799,0.232434232434232,32.470374584198
1743433594767,11:06:34.767,77,-1,1486.44688644689,0.232434232434232,32.470374584198
1743433594786,11:06:34.786,77,-1,1575.82417582418,0.232878232878233,32.470374584198
1743433594806,11:06:34.806,77,-1,1645.42124542125,0.232434232434232,32.470374584198
1743433594825,11:06:34.825,77,-1,1691.57509157509,0.231990231990232,32.470374584198
1743433594845,11:06:34.845,77,-1,1704.7619047619,0.231990231990232,32.470374584198
1743433594864,11:06:34.864,77,-1,1700.3663003663,0.231990231990232,32.470374584198
1743433594884,11:06:34.884,77,-1,1677.65567765568,0.232434232434232,32.470374584198
1743433594903,11:06:34.903,77,-1,1659.34065934066,0.231990231990232,32.470374584198
1743433594923,11:06:34.923,77,-1,1663.73626373626,0.231990231990232,32.470374584198
1743433594942,11:06:34.942,77,-1,1660.80586080586,0.231546231546231,32.470374584198
1743433594962,11:06:34.962,77,-1,1638.09523809524,0.231546231546231,32.470374584198
1743433594981,11:06:34.981,77,-1,1591.20879120879,0.231546231546231,32.470374584198
1743433595001,11:06:35.001,77,-1,1537.72893772894,0.231546231546231,32.470374584198
1743433595020,11:06:35.020,77,-1,1483.51648351648,0.231546231546231,32.470374584198
1743433595040,11:06:35.040,77,-1,1435.16483516484,0.231546231546231,32.470374584198
1743433595059,11:06:35.059,77,-1,1405.12820512821,0.231102231102231,32.470374584198
1743433595079,11:06:35.079,77,-1,1401.4652014652,0.231102231102231,32.470374584198
1743433595098,11:06:35.098,77,-1,1410.25641025641,0.231102231102231,32.470374584198
1743433595118,11:06:35.118,77,-1,1411.72161172161,0.231102231102231,32.470374584198
1743433595137,11:06:35.137,77,-1,1405.86080586081,0.231102231102231,32.470374584198
1743433595157,11:06:35.157,77,-1,1372.89377289377,0.231102231102231,32.470374584198
1743433595176,11:06:35.176,77,-1,1340.65934065934,0.230658230658231,32.470374584198
1743433595196,11:06:35.196,77,-1,1322.34432234432,0.230658230658231,32.470374584198
1743433595215,11:06:35.215,77,-1,1304.7619047619,0.231102231102231,32.470374584198
1743433595235,11:06:35.235,77,-1,1289.37728937729,0.231102231102231,32.470374584198
1743433595254,11:06:35.254,77,-1,1277.65567765568,0.231102231102231,32.470374584198
1743433595274,11:06:35.274,77,-1,1277.65567765568,0.230658230658231,32.470374584198
1743433595293,11:06:35.293,77,-1,1265.20146520147,0.230658230658231,32.470374584198
1743433595313,11:06:35.313,77,-1,1241.75824175824,0.23021423021423,32.470374584198
1743433595332,11:06:35.332,77,-1,1225.64102564103,0.230658230658231,32.470374584198
1743433595352,11:06:35.352,77,-1,1212.45421245421,0.230658230658231,32.470374584198
1743433595371,11:06:35.371,77,-1,1202.9304029304,0.230658230658231,32.470374584198
1743433595391,11:06:35.391,77,-1,1194.87179487179,0.230658230658231,32.470374584198
1743433595410,11:06:35.410,77,-1,1186.81318681319,0.23021423021423,32.470374584198
1743433595430,11:06:35.430,77,-1,1183.15018315018,0.23021423021423,32.470374584198
1743433595449,11:06:35.449,77,-1,1189.01098901099,0.23021423021423,32.470374584198
1743433595469,11:06:35.469,77,-1,1200,0.230658230658231,32.470374584198
1743433595488,11:06:35.488,77,-1,1205.86080586081,0.23021423021423,32.470374584198
1743433595508,11:06:35.508,77,-1,1206.59340659341,0.22977022977023,32.470374584198
1743433595527,11:06:35.527,72,-1,1211.72161172161,0.22977022977023,32.470374584198
1743433595547,11:06:35.547,72,-1,1217.58241758242,0.22977022977023,32.470374584198
1743433595566,11:06:35.566,72,-1,1221.24542124542,0.22977022977023,32.470374584198
1743433595586,11:06:35.586,72,-1,1256.41025641026,0.22977022977023,32.470374584198
1743433595605,11:06:35.605,72,-1,1331.13553113553,0.22977022977023,32.470374584198
1743433595625,11:06:35.625,72,-1,1409.52380952381,0.22977022977023,32.470374584198
1743433595644,11:06:35.644,72,-1,1492.30769230769,0.229326229326229,32.470374584198
1743433595664,11:06:35.664,72,-1,1566.30036630037,0.229326229326229,32.470374584198
1743433595683,11:06:35.683,72,-1,1617.58241758242,0.229326229326229,32.470374584198
1743433595703,11:06:35.703,72,-1,1642.49084249084,0.229326229326229,32.470374584198
1743433595722,11:06:35.722,72,-1,1650.54945054945,0.229326229326229,32.470374584198
1743433595742,11:06:35.742,72,-1,1652.01465201465,0.228882228882229,32.470374584198
1743433595761,11:06:35.761,72,-1,1646.15384615385,0.228882228882229,32.470374584198
1743433595781,11:06:35.781,72,-1,1624.90842490842,0.228882228882229,32.470374584198
1743433595800,11:06:35.800,72,-1,1599.2673992674,0.228882228882229,32.4753790319664
1743433595820,11:06:35.820,72,-1,1570.69597069597,0.228882228882229,32.4753790319664
1743433595839,11:06:35.839,72,-1,1529.67032967033,0.228882228882229,32.4753790319664
1743433595859,11:06:35.859,72,-1,1471.06227106227,0.228438228438228,32.4753790319664
1743433595878,11:06:35.878,72,-1,1420.51282051282,0.228438228438228,32.4753790319664
1743433595898,11:06:35.898,72,-1,1382.41758241758,0.228438228438228,32.4753790319664
1743433595917,11:06:35.917,72,-1,1367.03296703297,0.228438228438228,32.4753790319664
1743433595937,11:06:35.937,72,-1,1369.23076923077,0.228438228438228,32.4753790319664
1743433595956,11:06:35.956,72,-1,1361.90476190476,0.227994227994228,32.4753790319664
1743433595976,11:06:35.976,72,-1,1350.18315018315,0.227994227994228,32.4753790319664
1743433595995,11:06:35.995,72,-1,1339.92673992674,0.227550227550227,32.4753790319664
1743433596015,11:06:36.015,72,-1,1334.79853479853,0.227994227994228,32.4753790319664
1743433596034,11:06:36.034,72,-1,1320.14652014652,0.227994227994228,32.4753790319664
1743433596054,11:06:36.054,72,-1,1308.42490842491,0.227994227994228,32.4753790319664
1743433596073,11:06:36.073,72,-1,1288.64468864469,0.227994227994228,32.4753790319664
1743433596093,11:06:36.093,72,-1,1259.34065934066,0.227994227994228,32.4753790319664
1743433596112,11:06:36.112,72,-1,1233.69963369963,0.227550227550227,32.4753790319664
1743433596132,11:06:36.132,72,-1,1215.38461538462,0.227550227550227,32.4753790319664
1743433596151,11:06:36.151,72,-1,1213.18681318681,0.227994227994228,32.4753790319664
1743433596171,11:06:36.171,72,-1,1205.86080586081,0.227994227994228,32.4753790319664
1743433596190,11:06:36.190,72,-1,1200.7326007326,0.227550227550227,32.4753790319664
1743433596210,11:06:36.210,72,-1,1211.72161172161,0.227550227550227,32.4753790319664
1743433596229,11:06:36.229,72,-1,1221.24542124542,0.227106227106227,32.4753790319664
1743433596249,11:06:36.249,72,-1,1220.51282051282,0.227106227106227,32.4753790319664
1743433596268,11:06:36.268,72,-1,1206.59340659341,0.227550227550227,32.4753790319664
1743433596288,11:06:36.288,72,-1,1188.27838827839,0.227550227550227,32.4753790319664
1743433596307,11:06:36.307,72,-1,1169.96336996337,0.227550227550227,32.4753790319664
1743433596327,11:06:36.327,72,-1,1168.49816849817,0.227106227106227,32.4753790319664
1743433596346,11:06:36.346,72,-1,1183.15018315018,0.227106227106227,32.4753790319664
1743433596366,11:06:36.366,72,-1,1188.27838827839,0.227550227550227,32.4753790319664
1743433596385,11:06:36.385,68,-1,1194.13919413919,0.227550227550227,32.4753790319664
1743433596405,11:06:36.405,68,-1,1204.3956043956,0.227550227550227,32.4753790319664
1743433596424,11:06:36.424,68,-1,1218.31501831502,0.227106227106227,32.4753790319664
1743433596444,11:06:36.444,68,-1,1244.68864468864,0.227106227106227,32.4753790319664
1743433596463,11:06:36.463,68,-1,1294.50549450549,0.226662226662227,32.4753790319664
1743433596483,11:06:36.483,68,-1,1358.97435897436,0.226662226662227,32.4753790319664
1743433596502,11:06:36.502,68,-1,1438.09523809524,0.227106227106227,32.4753790319664
1743433596522,11:06:36.522,68,-1,1508.42490842491,0.227106227106227,32.4753790319664
1743433596541,11:06:36.541,68,-1,1558.24175824176,0.227106227106227,32.4753790319664
1743433596561,11:06:36.561,68,-1,1578.02197802198,0.226662226662227,32.4753790319664
1743433596580,11:06:36.580,68,-1,1573.62637362637,0.226662226662227,32.4753790319664
1743433596600,11:06:36.600,68,-1,1569.23076923077,0.227106227106227,32.4753790319664
1743433596619,11:06:36.619,68,-1,1571.42857142857,0.227106227106227,32.4753790319664
1743433596639,11:06:36.639,68,-1,1561.90476190476,0.227106227106227,32.4753790319664
1743433596658,11:06:36.658,68,-1,1537.72893772894,0.226662226662227,32.4753790319664
1743433596678,11:06:36.678,68,-1,1507.69230769231,0.226218226218226,32.4753790319664
1743433596697,11:06:36.697,68,-1,1472.52747252747,0.226662226662227,32.4753790319664
1743433596717,11:06:36.717,68,-1,1431.50183150183,0.227106227106227,32.4753790319664
1743433596736,11:06:36.736,68,-1,1393.40659340659,0.227106227106227,32.4753790319664
1743433596756,11:06:36.756,68,-1,1383.15018315018,0.227106227106227,32.4753790319664
1743433596775,11:06:36.775,68,-1,1379.48717948718,0.226662226662227,32.4753790319664
1743433596795,11:06:36.795,68,-1,1377.28937728938,0.226218226218226,32.4753790319664
1743433596814,11:06:36.814,68,-1,1371.42857142857,0.226218226218226,32.4753790319664
1743433596834,11:06:36.834,68,-1,1365.56776556777,0.226218226218226,32.4753790319664
1743433596853,11:06:36.853,68,-1,1347.25274725275,0.226218226218226,32.4753790319664
1743433596873,11:06:36.873,68,-1,1342.12454212454,0.226218226218226,32.4753790319664
1743433596892,11:06:36.892,68,-1,1339.19413919414,0.226218226218226,32.4753790319664
1743433596912,11:06:36.912,68,-1,1331.13553113553,0.225774225774226,32.4753790319664
1743433596931,11:06:36.931,68,-1,1309.15750915751,0.225774225774226,32.4753790319664
1743433596951,11:06:36.951,68,-1,1282.78388278388,0.225774225774226,32.4753790319664
1743433596970,11:06:36.970,68,-1,1252.74725274725,0.225774225774226,32.4753790319664
1743433596990,11:06:36.990,68,-1,1241.75824175824,0.225774225774226,32.4753790319664
1743433597009,11:06:37.009,68,-1,1235.16483516484,0.225330225330225,32.4753790319664
1743433597029,11:06:37.029,68,-1,1224.17582417582,0.225330225330225,32.4753790319664
1743433597048,11:06:37.048,68,-1,1233.69963369963,0.225330225330225,32.4753790319664
1743433597068,11:06:37.068,68,-1,1245.42124542125,0.225774225774226,32.4753790319664
1743433597087,11:06:37.087,68,-1,1255.67765567766,0.225774225774226,32.4753790319664
1743433597107,11:06:37.107,68,-1,1257.87545787546,0.225330225330225,32.4753790319664
1743433597126,11:06:37.126,68,-1,1243.22344322344,0.225330225330225,32.4753790319664
1743433597146,11:06:37.146,68,-1,1235.16483516484,0.225330225330225,32.4753790319664
1743433597165,11:06:37.165,70,-1,1232.96703296703,0.225330225330225,32.4753790319664
1743433597185,11:06:37.185,70,-1,1221.97802197802,0.225330225330225,32.4753790319664
1743433597204,11:06:37.204,70,-1,1238.82783882784,0.225330225330225,32.4753790319664
1743433597224,11:06:37.224,70,-1,1304.7619047619,0.225330225330225,32.4753790319664
1743433597243,11:06:37.243,70,-1,1389.01098901099,0.225330225330225,32.4753790319664
1743433597263,11:06:37.263,70,-1,1458.60805860806,0.224886224886225,32.4753790319664
1743433597282,11:06:37.282,70,-1,1506.22710622711,0.224886224886225,32.4753790319664
1743433597302,11:06:37.302,70,-1,1547.25274725275,0.224886224886225,32.4753790319664
1743433597321,11:06:37.321,70,-1,1577.28937728938,0.225330225330225,32.4753790319664
1743433597341,11:06:37.341,70,-1,1584.61538461538,0.224886224886225,32.4753790319664
1743433597360,11:06:37.360,70,-1,1560.43956043956,0.224886224886225,32.4753790319664
1743433597380,11:06:37.380,70,-1,1532.60073260073,0.224886224886225,32.4753790319664
1743433597399,11:06:37.399,70,-1,1515.01831501831,0.224886224886225,32.4753790319664
1743433597419,11:06:37.419,70,-1,1487.91208791209,0.224886224886225,32.4753790319664
1743433597438,11:06:37.438,70,-1,1470.32967032967,0.224886224886225,32.4753790319664
1743433597458,11:06:37.458,70,-1,1446.88644688645,0.224442224442224,32.4753790319664
1743433597477,11:06:37.477,70,-1,1412.45421245421,0.224442224442224,32.4753790319664
1743433597497,11:06:37.497,70,-1,1383.88278388278,0.224442224442224,32.4753790319664
1743433597516,11:06:37.516,70,-1,1375.09157509157,0.224442224442224,32.4753790319664
1743433597536,11:06:37.536,70,-1,1369.96336996337,0.224442224442224,32.4753790319664
1743433597555,11:06:37.555,70,-1,1366.30036630037,0.224886224886225,32.4753790319664
1743433597575,11:06:37.575,70,-1,1364.83516483516,0.224442224442224,32.4753790319664
1743433597594,11:06:37.594,70,-1,1369.96336996337,0.223998223998224,32.4753790319664
1743433597614,11:06:37.614,70,-1,1375.09157509157,0.223998223998224,32.4753790319664
1743433597633,11:06:37.633,70,-1,1353.84615384615,0.223998223998224,32.4753790319664
1743433597653,11:06:37.653,70,-1,1328.20512820513,0.223998223998224,32.4753790319664
1743433597672,11:06:37.672,70,-1,1323.80952380952,0.224442224442224,32.4753790319664
1743433597692,11:06:37.692,70,-1,1301.8315018315,0.224442224442224,32.4753790319664
1743433597711,11:06:37.711,70,-1,1277.65567765568,0.223998223998224,32.4753790319664
1743433597731,11:06:37.731,70,-1,1260.07326007326,0.223998223998224,32.4753790319664
1743433597750,11:06:37.750,70,-1,1244.68864468864,0.223998223998224,32.4753790319664
1743433597770,11:06:37.770,70,-1,1238.82783882784,0.223998223998224,32.4753790319664
1743433597789,11:06:37.789,70,-1,1243.22344322344,0.223998223998224,32.4653701306088
1743433597809,11:06:37.809,70,-1,1245.42124542125,0.223554223554223,32.4653701306088
1743433597828,11:06:37.828,70,-1,1246.88644688645,0.223554223554223,32.4653701306088
1743433597848,11:06:37.848,70,-1,1248.35164835165,0.223554223554223,32.4653701306088
1743433597867,11:06:37.867,70,-1,1248.35164835165,0.223554223554223,32.4653701306088
1743433597887,11:06:37.887,70,-1,1249.81684981685,0.223554223554223,32.4653701306088
1743433597906,11:06:37.906,70,-1,1249.08424908425,0.223554223554223,32.4653701306088
1743433597926,11:06:37.926,70,-1,1238.09523809524,0.223554223554223,32.4653701306088
1743433597945,11:06:37.945,70,-1,1236.63003663004,0.223110223110223,32.4653701306088
1743433597965,11:06:37.965,77,-1,1224.17582417582,0.223110223110223,32.4653701306088
1743433597984,11:06:37.984,77,-1,1227.10622710623,0.223554223554223,32.4653701306088
1743433598004,11:06:38.004,77,-1,1236.63003663004,0.223554223554223,32.4653701306088
1743433598023,11:06:38.023,77,-1,1273.26007326007,0.223554223554223,32.4653701306088
1743433598043,11:06:38.043,77,-1,1331.13553113553,0.223110223110223,32.4653701306088
1743433598062,11:06:38.062,77,-1,1403.663003663,0.223110223110223,32.4653701306088
1743433598082,11:06:38.082,77,-1,1483.51648351648,0.223110223110223,32.4653701306088
1743433598101,11:06:38.101,77,-1,1549.45054945055,0.223110223110223,32.4653701306088
1743433598121,11:06:38.121,77,-1,1568.49816849817,0.223110223110223,32.4653701306088
1743433598140,11:06:38.140,77,-1,1586.81318681319,0.223110223110223,32.4653701306088
1743433598160,11:06:38.160,77,-1,1605.12820512821,0.223110223110223,32.4653701306088
1743433598179,11:06:38.179,77,-1,1621.24542124542,0.222666222666223,32.4653701306088
1743433598199,11:06:38.199,77,-1,1609.52380952381,0.222666222666223,32.4653701306088
1743433598218,11:06:38.218,77,-1,1583.15018315018,0.223110223110223,32.4653701306088
1743433598238,11:06:38.238,77,-1,1564.83516483516,0.222666222666223,32.4653701306088
1743433598257,11:06:38.257,77,-1,1532.60073260073,0.222666222666223,32.4653701306088
1743433598277,11:06:38.277,77,-1,1496.7032967033,0.222222222222222,32.4653701306088
1743433598296,11:06:38.296,77,-1,1460.80586080586,0.222222222222222,32.4653701306088
1743433598316,11:06:38.316,77,-1,1420.51282051282,0.222222222222222,32.4653701306088
1743433598335,11:06:38.335,77,-1,1411.72161172161,0.222222222222222,32.4653701306088
1743433598355,11:06:38.355,77,-1,1411.72161172161,0.222666222666223,32.4653701306088
1743433598374,11:06:38.374,77,-1,1417.58241758242,0.222222222222222,32.4653701306088
1743433598394,11:06:38.394,77,-1,1411.72161172161,0.221778221778222,32.4653701306088
1743433598413,11:06:38.413,77,-1,1396.336996337,0.222222222222222,32.4653701306088
1743433598433,11:06:38.433,77,-1,1391.94139194139,0.221778221778222,32.4653701306088
1743433598452,11:06:38.452,77,-1,1389.74358974359,0.222222222222222,32.4653701306088
1743433598472,11:06:38.472,77,-1,1367.76556776557,0.221778221778222,32.4653701306088
1743433598491,11:06:38.491,77,-1,1348.71794871795,0.221778221778222,32.4653701306088
1743433598511,11:06:38.511,77,-1,1323.80952380952,0.221778221778222,32.4653701306088
1743433598530,11:06:38.530,77,-1,1290.84249084249,0.221778221778222,32.4653701306088
1743433598550,11:06:38.550,77,-1,1277.65567765568,0.221778221778222,32.4653701306088
1743433598569,11:06:38.569,77,-1,1280.58608058608,0.221778221778222,32.4653701306088
1743433598589,11:06:38.589,77,-1,1273.99267399267,0.221778221778222,32.4653701306088
1743433598608,11:06:38.608,77,-1,1260.07326007326,0.221334221334221,32.4653701306088
1743433598628,11:06:38.628,77,-1,1245.42124542125,0.221334221334221,32.4653701306088
1743433598647,11:06:38.647,77,-1,1235.16483516484,0.221334221334221,32.4653701306088
1743433598667,11:06:38.667,77,-1,1235.16483516484,0.221334221334221,32.4653701306088
1743433598686,11:06:38.686,77,-1,1239.56043956044,0.221334221334221,32.4653701306088
1743433598706,11:06:38.706,77,-1,1252.74725274725,0.221334221334221,32.4653701306088
1743433598725,11:06:38.725,77,-1,1260.80586080586,0.220890220890221,32.4653701306088
1743433598745,11:06:38.745,77,-1,1257.87545787546,0.220890220890221,32.4653701306088
1743433598764,11:06:38.764,77,-1,1251.28205128205,0.220890220890221,32.4653701306088
1743433598784,11:06:38.784,75,-1,1235.16483516484,0.221334221334221,32.4653701306088
1743433598803,11:06:38.803,75,-1,1226.37362637363,0.221334221334221,32.4653701306088
1743433598823,11:06:38.823,75,-1,1234.43223443223,0.221334221334221,32.4653701306088
1743433598842,11:06:38.842,75,-1,1257.87545787546,0.220890220890221,32.4653701306088
1743433598862,11:06:38.862,75,-1,1292.30769230769,0.22044622044622,32.4653701306088
1743433598881,11:06:38.881,75,-1,1361.17216117216,0.22044622044622,32.4653701306088
1743433598901,11:06:38.901,75,-1,1438.82783882784,0.220890220890221,32.4653701306088
1743433598920,11:06:38.920,75,-1,1512.08791208791,0.220890220890221,32.4653701306088
1743433598940,11:06:38.940,75,-1,1568.49816849817,0.220890220890221,32.4653701306088
1743433598959,11:06:38.959,75,-1,1616.11721611722,0.22044622044622,32.4653701306088
1743433598979,11:06:38.979,75,-1,1649.08424908425,0.22044622044622,32.4653701306088
1743433598998,11:06:38.998,75,-1,1667.39926739927,0.22044622044622,32.4653701306088
1743433599018,11:06:39.018,75,-1,1676.19047619048,0.220890220890221,32.4653701306088
1743433599037,11:06:39.037,75,-1,1679.85347985348,0.221334221334221,32.4653701306088
1743433599057,11:06:39.057,75,-1,1660.07326007326,0.220890220890221,32.4653701306088
1743433599076,11:06:39.076,75,-1,1629.30402930403,0.22044622044622,32.4653701306088
1743433599096,11:06:39.096,75,-1,1613.91941391941,0.22000222000222,32.4653701306088
1743433599115,11:06:39.115,75,-1,1591.20879120879,0.22044622044622,32.4653701306088
1743433599135,11:06:39.135,75,-1,1538.46153846154,0.220890220890221,32.4653701306088
1743433599154,11:06:39.154,75,-1,1493.77289377289,0.220890220890221,32.4653701306088
1743433599174,11:06:39.174,75,-1,1457.87545787546,0.220890220890221,32.4653701306088
1743433599193,11:06:39.193,75,-1,1447.61904761905,0.22044622044622,32.4653701306088
1743433599213,11:06:39.213,75,-1,1456.41025641026,0.22000222000222,32.4653701306088
1743433599232,11:06:39.232,75,-1,1458.60805860806,0.22000222000222,32.4653701306088
1743433599252,11:06:39.252,75,-1,1449.81684981685,0.22044622044622,32.4653701306088
1743433599271,11:06:39.271,75,-1,1439.56043956044,0.22044622044622,32.4653701306088
1743433599291,11:06:39.291,75,-1,1413.18681318681,0.22000222000222,32.4653701306088
1743433599310,11:06:39.310,75,-1,1393.40659340659,0.22000222000222,32.4653701306088
1743433599330,11:06:39.330,75,-1,1375.09157509157,0.22000222000222,32.4653701306088
1743433599349,11:06:39.349,75,-1,1370.69597069597,0.22044622044622,32.4653701306088
1743433599369,11:06:39.369,75,-1,1360.43956043956,0.22044622044622,32.4653701306088
1743433599388,11:06:39.388,75,-1,1332.60073260073,0.22044622044622,32.4653701306088
1743433599408,11:06:39.408,75,-1,1299.6336996337,0.22000222000222,32.4653701306088
1743433599427,11:06:39.427,75,-1,1271.79487179487,0.22044622044622,32.4653701306088
1743433599447,11:06:39.447,75,-1,1270.32967032967,0.22044622044622,32.4653701306088
1743433599466,11:06:39.466,75,-1,1260.80586080586,0.22044622044622,32.4653701306088
1743433599486,11:06:39.486,75,-1,1264.46886446886,0.22044622044622,32.4653701306088
1743433599505,11:06:39.505,75,-1,1268.13186813187,0.22044622044622,32.4653701306088
1743433599525,11:06:39.525,75,-1,1272.52747252747,0.22000222000222,32.4653701306088
1743433599544,11:06:39.544,75,-1,1274.72527472527,0.22000222000222,32.4653701306088
1743433599564,11:06:39.564,75,-1,1260.07326007326,0.22000222000222,32.4653701306088
1743433599583,11:06:39.583,75,-1,1252.74725274725,0.22000222000222,32.4653701306088
1743433599603,11:06:39.603,75,-1,1255.67765567766,0.22000222000222,32.4653701306088
1743433599622,11:06:39.622,75,-1,1255.67765567766,0.22000222000222,32.4653701306088
1743433599642,11:06:39.642,75,-1,1260.07326007326,0.21955821955822,32.4653701306088
1743433599661,11:06:39.661,73,-1,1245.42124542125,0.21955821955822,32.4653701306088
1743433599681,11:06:39.681,73,-1,1235.16483516484,0.21955821955822,32.4653701306088
1743433599700,11:06:39.700,73,-1,1235.89743589744,0.21955821955822,32.4653701306088
1743433599720,11:06:39.720,73,-1,1257.87545787546,0.22000222000222,32.4653701306088
1743433599739,11:06:39.739,73,-1,1315.01831501831,0.21955821955822,32.4653701306088
1743433599759,11:06:39.759,73,-1,1399.2673992674,0.21955821955822,32.4653701306088
1743433599778,11:06:39.778,73,-1,1496.7032967033,0.219114219114219,32.470374584198
1743433599798,11:06:39.798,73,-1,1578.02197802198,0.219114219114219,32.470374584198
1743433599817,11:06:39.817,73,-1,1645.42124542125,0.21955821955822,32.470374584198
1743433599837,11:06:39.837,73,-1,1686.44688644689,0.21955821955822,32.470374584198
1743433599856,11:06:39.856,73,-1,1700.3663003663,0.21955821955822,32.470374584198
1743433599876,11:06:39.876,73,-1,1700.3663003663,0.219114219114219,32.470374584198
1743433599895,11:06:39.895,73,-1,1698.9010989011,0.219114219114219,32.470374584198
1743433599915,11:06:39.915,73,-1,1690.10989010989,0.219114219114219,32.470374584198
1743433599934,11:06:39.934,73,-1,1671.79487179487,0.219114219114219,32.470374584198
1743433599954,11:06:39.954,73,-1,1642.49084249084,0.21955821955822,32.470374584198
1743433599973,11:06:39.973,73,-1,1611.72161172161,0.21955821955822,32.470374584198
1743433599993,11:06:39.993,73,-1,1575.82417582418,0.219114219114219,32.470374584198
1743433600012,11:06:40.012,73,-1,1537.72893772894,0.219114219114219,32.470374584198
1743433600032,11:06:40.032,73,-1,1528.20512820513,0.219114219114219,32.470374584198
1743433600051,11:06:40.051,73,-1,1519.41391941392,0.219114219114219,32.470374584198
1743433600071,11:06:40.071,73,-1,1482.05128205128,0.219114219114219,32.470374584198
1743433600090,11:06:40.090,73,-1,1459.34065934066,0.219114219114219,32.470374584198
1743433600110,11:06:40.110,73,-1,1452.01465201465,0.219114219114219,32.470374584198
1743433600129,11:06:40.129,73,-1,1448.35164835165,0.218670218670219,32.470374584198
1743433600149,11:06:40.149,73,-1,1433.69963369963,0.218670218670219,32.470374584198
1743433600168,11:06:40.168,73,-1,1409.52380952381,0.218670218670219,32.470374584198
1743433600188,11:06:40.188,73,-1,1396.336996337,0.219114219114219,32.470374584198
1743433600207,11:06:40.207,73,-1,1383.15018315018,0.218670218670219,32.470374584198
1743433600227,11:06:40.227,73,-1,1368.49816849817,0.218670218670219,32.470374584198
1743433600246,11:06:40.246,73,-1,1354.57875457875,0.218226218226218,32.470374584198
1743433600266,11:06:40.266,73,-1,1341.39194139194,0.218670218670219,32.470374584198
1743433600285,11:06:40.285,73,-1,1330.40293040293,0.218670218670219,32.470374584198
1743433600305,11:06:40.305,73,-1,1327.47252747253,0.218670218670219,32.470374584198
1743433600324,11:06:40.324,73,-1,1312.82051282051,0.218670218670219,32.470374584198
1743433600344,11:06:40.344,73,-1,1292.30769230769,0.218226218226218,32.470374584198
1743433600363,11:06:40.363,73,-1,1278.38827838828,0.218226218226218,32.470374584198
1743433600383,11:06:40.383,73,-1,1280.58608058608,0.218226218226218,32.470374584198
1743433600402,11:06:40.402,73,-1,1290.84249084249,0.218670218670219,32.470374584198
1743433600422,11:06:40.422,73,-1,1284.24908424908,0.218670218670219,32.470374584198
1743433600441,11:06:40.441,73,-1,1267.39926739927,0.218226218226218,32.470374584198
1743433600461,11:06:40.461,73,-1,1249.81684981685,0.218226218226218,32.470374584198
1743433600480,11:06:40.480,73,-1,1238.09523809524,0.218226218226218,32.470374584198
1743433600500,11:06:40.500,73,-1,1230.03663003663,0.218226218226218,32.470374584198
1743433600519,11:06:40.519,68,-1,1229.30402930403,0.218226218226218,32.470374584198
1743433600539,11:06:40.539,68,-1,1235.89743589744,0.218226218226218,32.470374584198
1743433600558,11:06:40.558,68,-1,1242.49084249084,0.218226218226218,32.470374584198
1743433600578,11:06:40.578,68,-1,1275.45787545788,0.217782217782218,32.470374584198
1743433600597,11:06:40.597,68,-1,1341.39194139194,0.217782217782218,32.470374584198
1743433600617,11:06:40.617,68,-1,1435.89743589744,0.217782217782218,32.470374584198
1743433600636,11:06:40.636,68,-1,1535.53113553114,0.218226218226218,32.470374584198
1743433600656,11:06:40.656,68,-1,1614.65201465201,0.217782217782218,32.470374584198
1743433600675,11:06:40.675,68,-1,1660.80586080586,0.217782217782218,32.470374584198
1743433600695,11:06:40.695,68,-1,1687.91208791209,0.217782217782218,32.470374584198
1743433600714,11:06:40.714,68,-1,1687.17948717949,0.217782217782218,32.470374584198
1743433600734,11:06:40.734,68,-1,1671.79487179487,0.217782217782218,32.470374584198
1743433600753,11:06:40.753,68,-1,1646.15384615385,0.218670218670219,32.470374584198
1743433600773,11:06:40.773,68,-1,1627.83882783883,0.218670218670219,32.4653701306088
1743433600792,11:06:40.792,68,-1,1624.90842490842,0.218226218226218,32.4653701306088
1743433600812,11:06:40.812,68,-1,1614.65201465201,0.218226218226218,32.4653701306088
1743433600831,11:06:40.831,68,-1,1580.21978021978,0.218226218226218,32.4653701306088
1743433600851,11:06:40.851,68,-1,1541.39194139194,0.218226218226218,32.4653701306088
1743433600870,11:06:40.870,68,-1,1502.5641025641,0.218226218226218,32.4653701306088
1743433600890,11:06:40.890,68,-1,1479.85347985348,0.218226218226218,32.4653701306088
1743433600909,11:06:40.909,68,-1,1455.67765567766,0.218226218226218,32.4653701306088
1743433600929,11:06:40.929,68,-1,1440.29304029304,0.218226218226218,32.4653701306088
1743433600948,11:06:40.948,68,-1,1421.97802197802,0.217782217782218,32.4653701306088
1743433600968,11:06:40.968,68,-1,1421.97802197802,0.218226218226218,32.4653701306088
1743433600987,11:06:40.987,68,-1,1428.57142857143,0.218226218226218,32.4653701306088
1743433601007,11:06:41.007,68,-1,1436.63003663004,0.218226218226218,32.4653701306088
1743433601026,11:06:41.026,68,-1,1432.96703296703,0.218226218226218,32.4653701306088
1743433601046,11:06:41.046,68,-1,1402.1978021978,0.217782217782218,32.4653701306088
1743433601065,11:06:41.065,68,-1,1360.43956043956,0.217782217782218,32.4653701306088
1743433601085,11:06:41.085,68,-1,1332.60073260073,0.217782217782218,32.4653701306088
1743433601104,11:06:41.104,68,-1,1317.21611721612,0.217782217782218,32.4653701306088
1743433601124,11:06:41.124,68,-1,1318.68131868132,0.217782217782218,32.4653701306088
1743433601143,11:06:41.143,68,-1,1325.27472527473,0.217338217338217,32.4653701306088
1743433601163,11:06:41.163,68,-1,1324.54212454212,0.217338217338217,32.4653701306088
1743433601182,11:06:41.182,68,-1,1313.55311355311,0.217338217338217,32.4653701306088
1743433601202,11:06:41.202,68,-1,1304.0293040293,0.217782217782218,32.4653701306088
1743433601221,11:06:41.221,68,-1,1295.2380952381,0.217782217782218,32.4653701306088
1743433601241,11:06:41.241,68,-1,1283.51648351648,0.217338217338217,32.4653701306088
1743433601260,11:06:41.260,70,-1,1269.59706959707,0.217338217338217,32.4653701306088
1743433601280,11:06:41.280,70,-1,1249.08424908425,0.217338217338217,32.4653701306088
1743433601299,11:06:41.299,70,-1,1252.01465201465,0.217338217338217,32.4653701306088
1743433601319,11:06:41.319,70,-1,1286.44688644689,0.217338217338217,32.4653701306088
1743433601338,11:06:41.338,70,-1,1357.50915750916,0.217782217782218,32.4653701306088
1743433601358,11:06:41.358,70,-1,1455.67765567766,0.217338217338217,32.4653701306088
1743433601377,11:06:41.377,70,-1,1548.71794871795,0.217338217338217,32.4653701306088
1743433601397,11:06:41.397,70,-1,1625.64102564103,0.217338217338217,32.4653701306088
1743433601416,11:06:41.416,70,-1,1684.24908424908,0.217338217338217,32.4653701306088
1743433601436,11:06:41.436,70,-1,1709.15750915751,0.217338217338217,32.4653701306088
1743433601455,11:06:41.455,70,-1,1709.89010989011,0.217338217338217,32.4653701306088
1743433601475,11:06:41.475,70,-1,1700.3663003663,0.216894216894217,32.4653701306088
1743433601494,11:06:41.494,70,-1,1682.78388278388,0.216894216894217,32.4653701306088
1743433601514,11:06:41.514,70,-1,1667.39926739927,0.216894216894217,32.4653701306088
1743433601533,11:06:41.533,70,-1,1651.28205128205,0.216894216894217,32.4653701306088
1743433601553,11:06:41.553,70,-1,1613.91941391941,0.216894216894217,32.4653701306088
1743433601572,11:06:41.572,70,-1,1575.09157509157,0.217338217338217,32.4653701306088
1743433601592,11:06:41.592,70,-1,1526.73992673993,0.216894216894217,32.4653701306088
1743433601611,11:06:41.611,70,-1,1485.71428571429,0.216894216894217,32.4653701306088
1743433601631,11:06:41.631,70,-1,1455.67765567766,0.216450216450216,32.4653701306088
1743433601650,11:06:41.650,70,-1,1442.49084249084,0.216894216894217,32.4653701306088
1743433601670,11:06:41.670,70,-1,1442.49084249084,0.216894216894217,32.4653701306088
1743433601689,11:06:41.689,70,-1,1432.96703296703,0.216894216894217,32.4653701306088
1743433601709,11:06:41.709,70,-1,1427.10622710623,0.216894216894217,32.4653701306088
1743433601728,11:06:41.728,70,-1,1413.91941391941,0.216450216450216,32.4653701306088
1743433601748,11:06:41.748,70,-1,1388.27838827839,0.216450216450216,32.4653701306088
1743433601767,11:06:41.767,70,-1,1369.23076923077,0.216894216894217,32.4653701306088
1743433601787,11:06:41.787,70,-1,1354.57875457875,0.216894216894217,32.4653701306088
1743433601806,11:06:41.806,70,-1,1325.27472527473,0.216894216894217,32.4653701306088
1743433601826,11:06:41.826,70,-1,1306.95970695971,0.216450216450216,32.4653701306088
1743433601845,11:06:41.845,70,-1,1298.1684981685,0.216450216450216,32.4653701306088
1743433601865,11:06:41.865,70,-1,1280.58608058608,0.216450216450216,32.4653701306088
1743433601884,11:06:41.884,70,-1,1271.79487179487,0.216450216450216,32.4653701306088
1743433601904,11:06:41.904,70,-1,1261.53846153846,0.216450216450216,32.4653701306088
1743433601923,11:06:41.923,70,-1,1258.60805860806,0.216450216450216,32.4653701306088
1743433601943,11:06:41.943,70,-1,1248.35164835165,0.216006216006216,32.4653701306088
1743433601962,11:06:41.962,70,-1,1233.69963369963,0.216006216006216,32.4653701306088
1743433601982,11:06:41.982,70,-1,1224.17582417582,0.216006216006216,32.4653701306088
1743433602001,11:06:42.001,70,-1,1220.51282051282,0.216450216450216,32.4653701306088
1743433602021,11:06:42.021,70,-1,1209.52380952381,0.216450216450216,32.4653701306088
1743433602040,11:06:42.040,70,-1,1216.11721611722,0.216006216006216,32.4653701306088
1743433602060,11:06:42.060,70,-1,1216.84981684982,0.216006216006216,32.4653701306088
1743433602079,11:06:42.079,81,-1,1231.50183150183,0.216006216006216,32.4653701306088
1743433602099,11:06:42.099,81,-1,1283.51648351648,0.216006216006216,32.4653701306088
1743433602118,11:06:42.118,81,-1,1389.74358974359,0.216006216006216,32.4653701306088
1743433602138,11:06:42.138,81,-1,1508.42490842491,0.216450216450216,32.4653701306088
1743433602157,11:06:42.157,81,-1,1613.91941391941,0.216450216450216,32.4653701306088
1743433602177,11:06:42.177,81,-1,1708.42490842491,0.216450216450216,32.4653701306088
1743433602196,11:06:42.196,81,-1,1767.76556776557,0.216006216006216,32.4653701306088
1743433602216,11:06:42.216,81,-1,1794.87179487179,0.216006216006216,32.4653701306088
1743433602235,11:06:42.235,81,-1,1789.01098901099,0.216450216450216,32.4653701306088
1743433602255,11:06:42.255,81,-1,1782.41758241758,0.216450216450216,32.4653701306088
1743433602274,11:06:42.274,81,-1,1758.97435897436,0.216450216450216,32.4653701306088
1743433602294,11:06:42.294,81,-1,1746.52014652015,0.216450216450216,32.4653701306088
1743433602313,11:06:42.313,81,-1,1717.21611721612,0.216450216450216,32.4653701306088
1743433602333,11:06:42.333,81,-1,1671.79487179487,0.216450216450216,32.4653701306088
1743433602352,11:06:42.352,81,-1,1613.91941391941,0.216894216894217,32.4653701306088
1743433602372,11:06:42.372,81,-1,1545.78754578755,0.216894216894217,32.4653701306088
1743433602391,11:06:42.391,81,-1,1490.84249084249,0.217338217338217,32.4653701306088
1743433602411,11:06:42.411,81,-1,1459.34065934066,0.216894216894217,32.4653701306088
1743433602430,11:06:42.430,81,-1,1454.94505494505,0.216894216894217,32.4653701306088
1743433602450,11:06:42.450,81,-1,1460.80586080586,0.217338217338217,32.4653701306088
1743433602469,11:06:42.469,81,-1,1465.20146520146,0.217338217338217,32.4653701306088
1743433602489,11:06:42.489,81,-1,1444.68864468864,0.217782217782218,32.4653701306088
1743433602508,11:06:42.508,81,-1,1421.97802197802,0.217782217782218,32.4653701306088
1743433602528,11:06:42.528,81,-1,1398.5347985348,0.217782217782218,32.4653701306088
1743433602547,11:06:42.547,81,-1,1374.35897435897,0.217782217782218,32.4653701306088
1743433602567,11:06:42.567,81,-1,1339.92673992674,0.218226218226218,32.4653701306088
1743433602586,11:06:42.586,81,-1,1303.2967032967,0.218670218670219,32.4653701306088
1743433602606,11:06:42.606,81,-1,1287.91208791209,0.218670218670219,32.4653701306088
1743433602625,11:06:42.625,81,-1,1263.73626373626,0.218670218670219,32.4653701306088
1743433602645,11:06:42.645,81,-1,1237.36263736264,0.218670218670219,32.4653701306088
1743433602664,11:06:42.664,81,-1,1229.30402930403,0.219114219114219,32.4653701306088
1743433602684,11:06:42.684,81,-1,1249.08424908425,0.21955821955822,32.4653701306088
1743433602703,11:06:42.703,81,-1,1260.80586080586,0.22000222000222,32.4653701306088
1743433602723,11:06:42.723,81,-1,1262.27106227106,0.22000222000222,32.4653701306088
1743433602742,11:06:42.742,81,-1,1267.39926739927,0.22044622044622,32.4653701306088
1743433602762,11:06:42.762,81,-1,1257.14285714286,0.22044622044622,32.470374584198
1743433602781,11:06:42.781,81,-1,1238.09523809524,0.22044622044622,32.470374584198
1743433602801,11:06:42.801,81,-1,1228.57142857143,0.220890220890221,32.470374584198
1743433602820,11:06:42.820,81,-1,1213.18681318681,0.221334221334221,32.470374584198
1743433602840,11:06:42.840,81,-1,1210.25641025641,0.221778221778222,32.470374584198
1743433602859,11:06:42.859,81,-1,1215.38461538462,0.221778221778222,32.470374584198
1743433602879,11:06:42.879,81,-1,1223.44322344322,0.222222222222222,32.470374584198
1743433602898,11:06:42.898,81,-1,1270.32967032967,0.222666222666223,32.470374584198
1743433602918,11:06:42.918,81,-1,1358.97435897436,0.223110223110223,32.470374584198
1743433602937,11:06:42.937,73,-1,1484.98168498168,0.223998223998224,32.470374584198
1743433602957,11:06:42.957,73,-1,1597.0695970696,0.223998223998224,32.470374584198
1743433602976,11:06:42.976,73,-1,1676.92307692308,0.224442224442224,32.470374584198
1743433602996,11:06:42.996,73,-1,1728.93772893773,0.224442224442224,32.470374584198
1743433603015,11:06:43.015,73,-1,1748.71794871795,0.225330225330225,32.470374584198
1743433603035,11:06:43.035,73,-1,1767.76556776557,0.225774225774226,32.470374584198
1743433603054,11:06:43.054,73,-1,1768.49816849817,0.226218226218226,32.470374584198
1743433603074,11:06:43.074,73,-1,1750.91575091575,0.226662226662227,32.470374584198
1743433603093,11:06:43.093,73,-1,1721.61172161172,0.227106227106227,32.470374584198
1743433603113,11:06:43.113,73,-1,1693.04029304029,0.227550227550227,32.470374584198
1743433603132,11:06:43.132,73,-1,1669.59706959707,0.227994227994228,32.470374584198
1743433603152,11:06:43.152,73,-1,1635.16483516484,0.228882228882229,32.470374584198
1743433603171,11:06:43.171,73,-1,1574.35897435897,0.22977022977023,32.470374584198
1743433603191,11:06:43.191,73,-1,1505.49450549451,0.23021423021423,32.470374584198
1743433603210,11:06:43.210,73,-1,1457.14285714286,0.23021423021423,32.470374584198
1743433603230,11:06:43.230,73,-1,1440.29304029304,0.230658230658231,32.470374584198
1743433603249,11:06:43.249,73,-1,1430.76923076923,0.231546231546231,32.470374584198
1743433603269,11:06:43.269,73,-1,1431.50183150183,0.231990231990232,32.470374584198
1743433603288,11:06:43.288,73,-1,1420.51282051282,0.232434232434232,32.470374584198
1743433603308,11:06:43.308,73,-1,1400,0.232434232434232,32.470374584198
1743433603327,11:06:43.327,73,-1,1381.68498168498,0.232878232878233,32.470374584198
1743433603347,11:06:43.347,73,-1,1357.50915750916,0.232878232878233,32.470374584198
1743433603366,11:06:43.366,73,-1,1324.54212454212,0.233322233322233,32.470374584198
1743433603386,11:06:43.386,73,-1,1315.75091575092,0.234210234210234,32.470374584198
1743433603405,11:06:43.405,73,-1,1293.77289377289,0.235098235098235,32.470374584198
1743433603425,11:06:43.425,73,-1,1268.86446886447,0.235542235542236,32.470374584198
1743433603444,11:06:43.444,73,-1,1263.73626373626,0.235542235542236,32.470374584198
1743433603464,11:06:43.464,73,-1,1271.06227106227,0.235986235986236,32.470374584198
1743433603483,11:06:43.483,73,-1,1269.59706959707,0.236874236874237,32.470374584198
1743433603503,11:06:43.503,73,-1,1260.80586080586,0.236874236874237,32.470374584198
1743433603522,11:06:43.522,73,-1,1237.36263736264,0.237318237318237,32.470374584198
1743433603542,11:06:43.542,73,-1,1216.84981684982,0.237762237762238,32.470374584198
1743433603561,11:06:43.561,73,-1,1213.18681318681,0.237762237762238,32.470374584198
1743433603581,11:06:43.581,73,-1,1214.65201465201,0.238206238206238,32.470374584198
1743433603600,11:06:43.600,73,-1,1216.84981684982,0.238206238206238,32.470374584198
1743433603620,11:06:43.620,73,-1,1212.45421245421,0.239094239094239,32.470374584198
1743433603639,11:06:43.639,73,-1,1208.05860805861,0.239094239094239,32.470374584198
1743433603659,11:06:43.659,73,-1,1187.54578754579,0.239094239094239,32.470374584198
1743433603678,11:06:43.678,73,-1,1186.08058608059,0.239094239094239,32.470374584198
1743433603698,11:06:43.698,73,-1,1194.87179487179,0.239094239094239,32.470374584198
1743433603717,11:06:43.717,73,-1,1202.1978021978,0.239094239094239,32.470374584198
1743433603737,11:06:43.737,73,-1,1224.17582417582,0.23953823953824,32.470374584198
1743433603756,11:06:43.756,73,-1,1280.58608058608,0.23998223998224,32.4603656711988
1743433603776,11:06:43.776,73,-1,1383.15018315018,0.23998223998224,32.4603656711988
1743433603795,11:06:43.795,70,-1,1504.7619047619,0.23998223998224,32.4603656711988
1743433603815,11:06:43.815,70,-1,1621.97802197802,0.23998223998224,32.4603656711988
1743433603834,11:06:43.834,70,-1,1704.7619047619,0.24042624042624,32.4603656711988
1743433603854,11:06:43.854,70,-1,1744.32234432234,0.240870240870241,32.4603656711988
1743433603873,11:06:43.873,70,-1,1756.77655677656,0.240870240870241,32.4603656711988
1743433603893,11:06:43.893,70,-1,1738.46153846154,0.240870240870241,32.4603656711988
1743433603912,11:06:43.912,70,-1,1704.7619047619,0.240870240870241,32.4603656711988
1743433603932,11:06:43.932,70,-1,1682.05128205128,0.241314241314241,32.4603656711988
1743433603951,11:06:43.951,70,-1,1663.00366300366,0.241758241758242,32.4603656711988
1743433603971,11:06:43.971,70,-1,1641.75824175824,0.242202242202242,32.4603656711988
1743433603990,11:06:43.990,70,-1,1600,0.242202242202242,32.4603656711988
1743433604010,11:06:44.010,70,-1,1552.38095238095,0.242646242646243,32.4603656711988
1743433604029,11:06:44.029,70,-1,1487.17948717949,0.242646242646243,32.4603656711988
1743433604049,11:06:44.049,70,-1,1434.43223443223,0.243090243090243,32.4603656711988
1743433604068,11:06:44.068,70,-1,1407.32600732601,0.243090243090243,32.4603656711988
1743433604088,11:06:44.088,70,-1,1402.1978021978,0.243978243978244,32.4603656711988
1743433604107,11:06:44.107,70,-1,1408.05860805861,0.243978243978244,32.4603656711988
1743433604127,11:06:44.127,70,-1,1408.79120879121,0.243978243978244,32.4603656711988
1743433604146,11:06:44.146,70,-1,1408.79120879121,0.244422244422244,32.4603656711988
1743433604166,11:06:44.166,70,-1,1391.94139194139,0.244866244866245,32.4603656711988
1743433604185,11:06:44.185,70,-1,1369.23076923077,0.245310245310245,32.4603656711988
1743433604205,11:06:44.205,70,-1,1339.92673992674,0.245754245754246,32.4603656711988
1743433604224,11:06:44.224,70,-1,1300.3663003663,0.245754245754246,32.4603656711988
1743433604244,11:06:44.244,70,-1,1274.72527472527,0.245754245754246,32.4603656711988
1743433604263,11:06:44.263,70,-1,1267.39926739927,0.245754245754246,32.4603656711988
1743433604283,11:06:44.283,70,-1,1247.61904761905,0.245754245754246,32.4603656711988
1743433604302,11:06:44.302,70,-1,1229.30402930403,0.246198246198246,32.4603656711988
1743433604322,11:06:44.322,70,-1,1226.37362637363,0.246642246642247,32.4603656711988
1743433604341,11:06:44.341,70,-1,1217.58241758242,0.246642246642247,32.4603656711988
1743433604361,11:06:44.361,70,-1,1196.336996337,0.246642246642247,32.4603656711988
1743433604380,11:06:44.380,70,-1,1181.68498168498,0.246642246642247,32.4603656711988
1743433604400,11:06:44.400,70,-1,1179.48717948718,0.247086247086247,32.4603656711988
1743433604419,11:06:44.419,70,-1,1186.81318681319,0.247530247530248,32.4603656711988
1743433604439,11:06:44.439,70,-1,1186.81318681319,0.247530247530248,32.4603656711988
1743433604458,11:06:44.458,70,-1,1198.5347985348,0.247530247530248,32.4603656711988
1743433604478,11:06:44.478,70,-1,1208.05860805861,0.247530247530248,32.4603656711988
1743433604497,11:06:44.497,70,-1,1206.59340659341,0.247530247530248,32.4603656711988
1743433604517,11:06:44.517,70,-1,1192.67399267399,0.247974247974248,32.4603656711988
1743433604536,11:06:44.536,70,-1,1184.61538461538,0.248418248418248,32.4603656711988
1743433604556,11:06:44.556,70,-1,1180.21978021978,0.248418248418248,32.4603656711988
1743433604575,11:06:44.575,70,-1,1178.75457875458,0.248418248418248,32.4603656711988
1743433604595,11:06:44.595,70,-1,1172.16117216117,0.248418248418248,32.4603656711988
1743433604614,11:06:44.614,70,-1,1210.25641025641,0.248862248862249,32.4603656711988
1743433604634,11:06:44.634,70,-1,1301.8315018315,0.248862248862249,32.4603656711988
1743433604653,11:06:44.653,70,-1,1408.79120879121,0.248862248862249,32.4603656711988
1743433604673,11:06:44.673,70,-1,1506.22710622711,0.249306249306249,32.4603656711988
1743433604692,11:06:44.692,70,-1,1597.0695970696,0.249306249306249,32.4603656711988
1743433604712,11:06:44.712,70,-1,1645.42124542125,0.249306249306249,32.4603656711988
1743433604731,11:06:44.731,70,-1,1671.79487179487,0.249306249306249,32.4603656711988
1743433604751,11:06:44.751,70,-1,1689.37728937729,0.249306249306249,32.4653701306088
1743433604770,11:06:44.770,70,-1,1683.51648351648,0.24975024975025,32.4653701306088
1743433604790,11:06:44.790,70,-1,1660.07326007326,0.24975024975025,32.4653701306088
1743433604809,11:06:44.809,70,-1,1628.57142857143,0.24975024975025,32.4653701306088
1743433604829,11:06:44.829,70,-1,1597.0695970696,0.249306249306249,32.4653701306088
1743433604848,11:06:44.848,70,-1,1565.56776556777,0.24975024975025,32.4653701306088
1743433604868,11:06:44.868,70,-1,1528.20512820513,0.24975024975025,32.4653701306088
1743433604887,11:06:44.887,70,-1,1503.2967032967,0.250638250638251,32.4653701306088
1743433604907,11:06:44.907,70,-1,1465.93406593407,0.250638250638251,32.4653701306088
1743433604926,11:06:44.926,70,-1,1421.24542124542,0.250638250638251,32.4653701306088
1743433604946,11:06:44.946,70,-1,1387.54578754579,0.251082251082251,32.4653701306088
1743433604965,11:06:44.965,70,-1,1375.82417582418,0.251082251082251,32.4653701306088
1743433604985,11:06:44.985,70,-1,1368.49816849817,0.251970251970252,32.4653701306088
1743433605004,11:06:45.004,70,-1,1366.30036630037,0.252414252414252,32.4653701306088
1743433605024,11:06:45.024,70,-1,1356.04395604396,0.252414252414252,32.4653701306088
1743433605043,11:06:45.043,70,-1,1340.65934065934,0.252858252858253,32.4653701306088
1743433605063,11:06:45.063,70,-1,1334.06593406593,0.252414252414252,32.4653701306088
1743433605082,11:06:45.082,70,-1,1314.28571428571,0.252858252858253,32.4653701306088
1743433605102,11:06:45.102,70,-1,1295.2380952381,0.253302253302253,32.4653701306088
1743433605121,11:06:45.121,70,-1,1281.31868131868,0.253746253746254,32.4653701306088
1743433605141,11:06:45.141,70,-1,1272.52747252747,0.253302253302253,32.4653701306088
1743433605160,11:06:45.160,70,-1,1259.34065934066,0.253302253302253,32.4653701306088
1743433605180,11:06:45.180,70,-1,1228.57142857143,0.253746253746254,32.4653701306088
1743433605199,11:06:45.199,70,-1,1204.3956043956,0.253746253746254,32.4653701306088
1743433605219,11:06:45.219,70,-1,1208.05860805861,0.254190254190254,32.4653701306088
1743433605238,11:06:45.238,70,-1,1214.65201465201,0.254634254634255,32.4653701306088
1743433605258,11:06:45.258,70,-1,1217.58241758242,0.254634254634255,32.4653701306088
1743433605277,11:06:45.277,70,-1,1210.25641025641,0.254190254190254,32.4653701306088
1743433605297,11:06:45.297,70,-1,1190.47619047619,0.254190254190254,32.4653701306088
1743433605316,11:06:45.316,70,-1,1181.68498168498,0.254190254190254,32.4653701306088
1743433605336,11:06:45.336,70,-1,1182.41758241758,0.254634254634255,32.4653701306088
1743433605355,11:06:45.355,70,-1,1194.87179487179,0.254634254634255,32.4653701306088
1743433605375,11:06:45.375,70,-1,1204.3956043956,0.254634254634255,32.4653701306088
1743433605394,11:06:45.394,70,-1,1197.8021978022,0.254190254190254,32.4653701306088
1743433605414,11:06:45.414,70,-1,1202.9304029304,0.253746253746254,32.4653701306088
1743433605433,11:06:45.433,70,-1,1200,0.254190254190254,32.4653701306088
1743433605453,11:06:45.453,70,-1,1217.58241758242,0.254190254190254,32.4653701306088
1743433605472,11:06:45.472,70,-1,1260.07326007326,0.254190254190254,32.4653701306088
1743433605492,11:06:45.492,70,-1,1326.00732600733,0.253746253746254,32.4653701306088
1743433605511,11:06:45.511,70,-1,1409.52380952381,0.253746253746254,32.4653701306088
1743433605531,11:06:45.531,70,-1,1491.57509157509,0.254190254190254,32.4653701306088
1743433605550,11:06:45.550,70,-1,1554.57875457875,0.254190254190254,32.4653701306088
1743433605570,11:06:45.570,70,-1,1596.336996337,0.254190254190254,32.4653701306088
1743433605589,11:06:45.589,70,-1,1616.11721611722,0.254634254634255,32.4653701306088
1743433605609,11:06:45.609,70,-1,1614.65201465201,0.254190254190254,32.4653701306088
1743433605628,11:06:45.628,70,-1,1597.8021978022,0.254190254190254,32.4653701306088
1743433605648,11:06:45.648,70,-1,1566.30036630037,0.254190254190254,32.4653701306088
1743433605667,11:06:45.667,70,-1,1544.32234432234,0.254190254190254,32.4653701306088
1743433605687,11:06:45.687,70,-1,1515.01831501831,0.254634254634255,32.4653701306088
1743433605706,11:06:45.706,70,-1,1494.50549450549,0.254634254634255,32.4653701306088
1743433605726,11:06:45.726,70,-1,1452.01465201465,0.254190254190254,32.4653701306088
1743433605745,11:06:45.745,70,-1,1412.45421245421,0.254190254190254,32.4653701306088
1743433605765,11:06:45.765,70,-1,1376.55677655678,0.254190254190254,32.4653701306088
1743433605784,11:06:45.784,70,-1,1361.17216117216,0.254190254190254,32.4653701306088
1743433605804,11:06:45.804,70,-1,1359.70695970696,0.254634254634255,32.4653701306088
1743433605823,11:06:45.823,70,-1,1367.76556776557,0.254634254634255,32.4653701306088
1743433605843,11:06:45.843,70,-1,1372.16117216117,0.254634254634255,32.4653701306088
1743433605862,11:06:45.862,70,-1,1377.28937728938,0.254634254634255,32.4653701306088
1743433605882,11:06:45.882,70,-1,1369.96336996337,0.254634254634255,32.4653701306088
1743433605901,11:06:45.901,70,-1,1354.57875457875,0.255078255078255,32.4653701306088
1743433605921,11:06:45.921,70,-1,1334.06593406593,0.255078255078255,32.4653701306088
1743433605940,11:06:45.940,70,-1,1313.55311355311,0.255522255522255,32.4653701306088
1743433605960,11:06:45.960,70,-1,1287.17948717949,0.255522255522255,32.4653701306088
1743433605979,11:06:45.979,70,-1,1254.94505494505,0.255522255522255,32.4653701306088
1743433605999,11:06:45.999,70,-1,1239.56043956044,0.255522255522255,32.4653701306088
1743433606018,11:06:46.018,70,-1,1225.64102564103,0.255966255966256,32.4653701306088
1743433606038,11:06:46.038,70,-1,1223.44322344322,0.256410256410256,32.4653701306088
1743433606057,11:06:46.057,70,-1,1216.11721611722,0.256410256410256,32.4653701306088
1743433606077,11:06:46.077,70,-1,1198.5347985348,0.256410256410256,32.4653701306088
1743433606096,11:06:46.096,70,-1,1202.1978021978,0.256410256410256,32.4653701306088
1743433606116,11:06:46.116,70,-1,1211.72161172161,0.256854256854257,32.4653701306088
1743433606135,11:06:46.135,70,-1,1213.91941391941,0.257298257298257,32.4653701306088
1743433606155,11:06:46.155,81,-1,1207.32600732601,0.257298257298257,32.4653701306088
1743433606174,11:06:46.174,81,-1,1206.59340659341,0.257298257298257,32.4653701306088
1743433606194,11:06:46.194,81,-1,1226.37362637363,0.256854256854257,32.4653701306088
1743433606213,11:06:46.213,81,-1,1266.66666666667,0.256854256854257,32.4653701306088
1743433606233,11:06:46.233,81,-1,1350.91575091575,0.256854256854257,32.4653701306088
1743433606252,11:06:46.252,81,-1,1446.88644688645,0.257298257298257,32.4653701306088
1743433606272,11:06:46.272,81,-1,1523.80952380952,0.257298257298257,32.4653701306088
1743433606291,11:06:46.291,81,-1,1569.96336996337,0.257298257298257,32.4653701306088
1743433606311,11:06:46.311,81,-1,1588.27838827839,0.257298257298257,32.4653701306088
1743433606330,11:06:46.330,81,-1,1572.89377289377,0.256854256854257,32.4653701306088
1743433606350,11:06:46.350,81,-1,1565.56776556777,0.256854256854257,32.4653701306088
1743433606369,11:06:46.369,81,-1,1552.38095238095,0.257298257298257,32.4653701306088
1743433606389,11:06:46.389,81,-1,1540.65934065934,0.256854256854257,32.4653701306088
1743433606408,11:06:46.408,81,-1,1517.21611721612,0.256854256854257,32.4653701306088
1743433606428,11:06:46.428,81,-1,1493.04029304029,0.256410256410256,32.4653701306088
1743433606447,11:06:46.447,81,-1,1444.68864468864,0.256410256410256,32.4653701306088
1743433606467,11:06:46.467,81,-1,1397.8021978022,0.256410256410256,32.4653701306088
1743433606486,11:06:46.486,81,-1,1364.83516483516,0.256854256854257,32.4653701306088
1743433606506,11:06:46.506,81,-1,1339.19413919414,0.256854256854257,32.4653701306088
1743433606526,11:06:46.525,81,-1,1323.07692307692,0.256410256410256,32.4653701306088
1743433606545,11:06:46.545,81,-1,1325.27472527473,0.256410256410256,32.4653701306088
1743433606565,11:06:46.564,81,-1,1319.41391941392,0.255966255966256,32.4653701306088
1743433606584,11:06:46.584,81,-1,1317.21611721612,0.256410256410256,32.4653701306088
1743433606604,11:06:46.603,81,-1,1313.55311355311,0.256410256410256,32.4653701306088
1743433606623,11:06:46.623,81,-1,1307.69230769231,0.256410256410256,32.4653701306088
1743433606643,11:06:46.642,81,-1,1290.84249084249,0.255966255966256,32.4653701306088
1743433606662,11:06:46.662,81,-1,1265.93406593407,0.255522255522255,32.4653701306088
1743433606682,11:06:46.682,81,-1,1243.95604395604,0.255522255522255,32.4653701306088
1743433606701,11:06:46.701,81,-1,1230.03663003663,0.255522255522255,32.4653701306088
1743433606721,11:06:46.721,81,-1,1222.71062271062,0.255966255966256,32.4653701306088
1743433606740,11:06:46.740,81,-1,1219.78021978022,0.255522255522255,32.4553612059681
1743433606760,11:06:46.760,81,-1,1230.03663003663,0.255078255078255,32.4553612059681
1743433606779,11:06:46.779,81,-1,1233.69963369963,0.255078255078255,32.4553612059681
1743433606799,11:06:46.799,81,-1,1227.10622710623,0.255078255078255,32.4553612059681
1743433606818,11:06:46.818,81,-1,1223.44322344322,0.255078255078255,32.4553612059681
1743433606838,11:06:46.838,81,-1,1216.11721611722,0.255522255522255,32.4553612059681
1743433606857,11:06:46.857,81,-1,1215.38461538462,0.255078255078255,32.4553612059681
1743433606877,11:06:46.877,81,-1,1208.05860805861,0.254634254634255,32.4553612059681
1743433606896,11:06:46.896,81,-1,1188.27838827839,0.254634254634255,32.4553612059681
1743433606916,11:06:46.916,81,-1,1185.34798534799,0.254634254634255,32.4553612059681
1743433606935,11:06:46.935,81,-1,1209.52380952381,0.254634254634255,32.4553612059681
1743433606955,11:06:46.955,79,-1,1254.21245421245,0.254634254634255,32.4553612059681
1743433606974,11:06:46.974,79,-1,1337.72893772894,0.254190254190254,32.4553612059681
1743433606994,11:06:46.994,79,-1,1427.10622710623,0.254190254190254,32.4553612059681
1743433607013,11:06:47.013,79,-1,1510.62271062271,0.253746253746254,32.4553612059681
1743433607033,11:06:47.033,79,-1,1559.70695970696,0.253746253746254,32.4553612059681
1743433607052,11:06:47.052,79,-1,1583.15018315018,0.253746253746254,32.4553612059681
1743433607072,11:06:47.072,79,-1,1599.2673992674,0.253746253746254,32.4553612059681
1743433607091,11:06:47.091,79,-1,1608.05860805861,0.253746253746254,32.4553612059681
1743433607111,11:06:47.111,79,-1,1596.336996337,0.253302253302253,32.4553612059681
1743433607130,11:06:47.130,79,-1,1578.02197802198,0.253302253302253,32.4553612059681
1743433607150,11:06:47.150,79,-1,1545.05494505494,0.253302253302253,32.4553612059681
1743433607169,11:06:47.169,79,-1,1518.68131868132,0.253302253302253,32.4553612059681
1743433607189,11:06:47.189,79,-1,1504.0293040293,0.253302253302253,32.4553612059681
1743433607208,11:06:47.208,79,-1,1482.78388278388,0.252858252858253,32.4553612059681
1743433607228,11:06:47.228,79,-1,1452.01465201465,0.252858252858253,32.4553612059681
1743433607247,11:06:47.247,79,-1,1417.58241758242,0.252414252414252,32.4553612059681
1743433607267,11:06:47.267,79,-1,1380.95238095238,0.252414252414252,32.4553612059681
1743433607286,11:06:47.286,79,-1,1341.39194139194,0.252858252858253,32.4553612059681
1743433607306,11:06:47.306,79,-1,1329.67032967033,0.252858252858253,32.4553612059681
1743433607325,11:06:47.325,79,-1,1322.34432234432,0.252414252414252,32.4553612059681
1743433607345,11:06:47.345,79,-1,1326.00732600733,0.252414252414252,32.4553612059681
1743433607364,11:06:47.364,79,-1,1326.73992673993,0.251970251970252,32.4553612059681
1743433607384,11:06:47.384,79,-1,1325.27472527473,0.251970251970252,32.4553612059681
1743433607403,11:06:47.403,79,-1,1325.27472527473,0.251970251970252,32.4553612059681
1743433607423,11:06:47.423,79,-1,1328.20512820513,0.251970251970252,32.4553612059681
1743433607442,11:06:47.442,79,-1,1320.14652014652,0.251970251970252,32.4553612059681
1743433607462,11:06:47.462,79,-1,1287.91208791209,0.251526251526252,32.4553612059681
1743433607481,11:06:47.481,79,-1,1250.54945054945,0.251526251526252,32.4553612059681
1743433607501,11:06:47.501,79,-1,1231.50183150183,0.251526251526252,32.4553612059681
1743433607520,11:06:47.520,79,-1,1227.10622710623,0.251970251970252,32.4553612059681
1743433607540,11:06:47.540,79,-1,1227.10622710623,0.251526251526252,32.4553612059681
1743433607559,11:06:47.559,79,-1,1232.23443223443,0.251526251526252,32.4553612059681
1743433607579,11:06:47.579,79,-1,1236.63003663004,0.251082251082251,32.4553612059681
1743433607598,11:06:47.598,79,-1,1224.17582417582,0.250638250638251,32.4553612059681
1743433607618,11:06:47.618,79,-1,1202.1978021978,0.251082251082251,32.4553612059681
1743433607637,11:06:47.637,79,-1,1196.336996337,0.251082251082251,32.4553612059681
1743433607657,11:06:47.657,79,-1,1200.7326007326,0.251082251082251,32.4553612059681
1743433607676,11:06:47.676,79,-1,1205.86080586081,0.250638250638251,32.4553612059681
1743433607696,11:06:47.696,79,-1,1205.12820512821,0.250638250638251,32.4553612059681
1743433607715,11:06:47.715,79,-1,1212.45421245421,0.25019425019425,32.4553612059681
1743433607735,11:06:47.735,79,-1,1226.37362637363,0.25019425019425,32.4553612059681
1743433607754,11:06:47.754,79,-1,1249.81684981685,0.250638250638251,32.4553612059681
1743433607774,11:06:47.774,79,-1,1312.08791208791,0.250638250638251,32.4553612059681
1743433607793,11:06:47.793,79,-1,1381.68498168498,0.25019425019425,32.4553612059681
1743433607813,11:06:47.813,75,-1,1460.07326007326,0.24975024975025,32.4553612059681
1743433607832,11:06:47.832,75,-1,1520.87912087912,0.24975024975025,32.4553612059681
1743433607852,11:06:47.852,75,-1,1557.50915750916,0.25019425019425,32.4553612059681
1743433607871,11:06:47.871,75,-1,1583.15018315018,0.25019425019425,32.4553612059681
1743433607891,11:06:47.891,75,-1,1594.13919413919,0.24975024975025,32.4553612059681
1743433607910,11:06:47.910,75,-1,1594.13919413919,0.24975024975025,32.4553612059681
1743433607930,11:06:47.930,75,-1,1593.40659340659,0.249306249306249,32.4553612059681
1743433607949,11:06:47.949,75,-1,1581.68498168498,0.249306249306249,32.4553612059681
1743433607969,11:06:47.969,75,-1,1579.48717948718,0.249306249306249,32.4553612059681
1743433607988,11:06:47.988,75,-1,1575.82417582418,0.249306249306249,32.4553612059681
1743433608008,11:06:48.008,75,-1,1532.60073260073,0.249306249306249,32.4553612059681
1743433608027,11:06:48.027,75,-1,1479.85347985348,0.249306249306249,32.4553612059681
1743433608047,11:06:48.047,75,-1,1430.76923076923,0.248862248862249,32.4553612059681
1743433608066,11:06:48.066,75,-1,1405.12820512821,0.248862248862249,32.4553612059681
1743433608086,11:06:48.086,75,-1,1403.663003663,0.248862248862249,32.4553612059681
1743433608105,11:06:48.105,75,-1,1410.25641025641,0.248862248862249,32.4553612059681
1743433608125,11:06:48.125,75,-1,1395.6043956044,0.249306249306249,32.4553612059681
1743433608144,11:06:48.144,75,-1,1387.54578754579,0.248862248862249,32.4553612059681
1743433608164,11:06:48.164,75,-1,1376.55677655678,0.248418248418248,32.4553612059681
1743433608183,11:06:48.183,75,-1,1356.77655677656,0.248418248418248,32.4553612059681
1743433608203,11:06:48.203,75,-1,1332.60073260073,0.248418248418248,32.4553612059681
1743433608222,11:06:48.222,75,-1,1309.15750915751,0.248418248418248,32.4553612059681
1743433608242,11:06:48.242,75,-1,1290.84249084249,0.248418248418248,32.4553612059681
1743433608261,11:06:48.261,75,-1,1276.92307692308,0.247974247974248,32.4553612059681
1743433608281,11:06:48.281,75,-1,1263.00366300366,0.247530247530248,32.4553612059681
1743433608300,11:06:48.300,75,-1,1244.68864468864,0.247974247974248,32.4553612059681
1743433608320,11:06:48.320,75,-1,1234.43223443223,0.247974247974248,32.4553612059681
1743433608339,11:06:48.339,75,-1,1228.57142857143,0.247974247974248,32.4553612059681
1743433608359,11:06:48.359,75,-1,1229.30402930403,0.247974247974248,32.4553612059681
1743433608378,11:06:48.378,75,-1,1222.71062271062,0.247530247530248,32.4553612059681
1743433608398,11:06:48.398,75,-1,1218.31501831502,0.247530247530248,32.4553612059681
1743433608417,11:06:48.417,75,-1,1216.11721611722,0.247530247530248,32.4553612059681
1743433608437,11:06:48.437,75,-1,1208.79120879121,0.247530247530248,32.4553612059681
1743433608456,11:06:48.456,75,-1,1213.18681318681,0.247086247086247,32.4553612059681
1743433608476,11:06:48.476,75,-1,1210.25641025641,0.247086247086247,32.4553612059681
1743433608495,11:06:48.495,75,-1,1213.18681318681,0.247086247086247,32.4553612059681
1743433608515,11:06:48.515,75,-1,1221.97802197802,0.246642246642247,32.4553612059681
1743433608534,11:06:48.534,75,-1,1217.58241758242,0.246642246642247,32.4553612059681
1743433608554,11:06:48.554,75,-1,1209.52380952381,0.247086247086247,32.4553612059681
1743433608573,11:06:48.573,75,-1,1193.40659340659,0.246642246642247,32.4553612059681
1743433608593,11:06:48.593,75,-1,1198.5347985348,0.246642246642247,32.4553612059681
1743433608612,11:06:48.612,75,-1,1245.42124542125,0.246198246198246,32.4553612059681
1743433608632,11:06:48.632,75,-1,1316.48351648352,0.246198246198246,32.4553612059681
1743433608651,11:06:48.651,75,-1,1394.13919413919,0.246198246198246,32.4553612059681
1743433608671,11:06:48.671,70,-1,1468.13186813187,0.246642246642247,32.4553612059681
1743433608690,11:06:48.690,70,-1,1530.40293040293,0.246198246198246,32.4553612059681
1743433608710,11:06:48.710,70,-1,1566.30036630037,0.246198246198246,32.4553612059681
1743433608729,11:06:48.729,70,-1,1579.48717948718,0.245754245754246,32.4653701306088
1743433608749,11:06:48.749,70,-1,1569.96336996337,0.245754245754246,32.4653701306088
1743433608768,11:06:48.768,70,-1,1561.90476190476,0.245754245754246,32.4653701306088
1743433608788,11:06:48.788,70,-1,1550.91575091575,0.245754245754246,32.4653701306088
1743433608807,11:06:48.807,70,-1,1532.60073260073,0.245754245754246,32.4653701306088
1743433608827,11:06:48.827,70,-1,1521.61172161172,0.245310245310245,32.4653701306088
1743433608846,11:06:48.846,70,-1,1490.84249084249,0.245310245310245,32.4653701306088
1743433608866,11:06:48.866,70,-1,1449.81684981685,0.245310245310245,32.4653701306088
1743433608885,11:06:48.885,70,-1,1425.64102564103,0.245310245310245,32.4653701306088
1743433608905,11:06:48.905,70,-1,1400.7326007326,0.245310245310245,32.4653701306088
1743433608924,11:06:48.924,70,-1,1380.21978021978,0.245310245310245,32.4653701306088
1743433608944,11:06:48.944,70,-1,1378.02197802198,0.244866244866245,32.4653701306088
1743433608963,11:06:48.963,70,-1,1391.20879120879,0.244866244866245,32.4653701306088
1743433608983,11:06:48.983,70,-1,1395.6043956044,0.244422244422244,32.4653701306088
1743433609002,11:06:49.002,70,-1,1391.94139194139,0.244866244866245,32.4653701306088
1743433609022,11:06:49.022,70,-1,1379.48717948718,0.245310245310245,32.4653701306088
1743433609041,11:06:49.041,70,-1,1369.96336996337,0.244866244866245,32.4653701306088
1743433609061,11:06:49.061,70,-1,1350.18315018315,0.244422244422244,32.4653701306088
1743433609080,11:06:49.080,70,-1,1327.47252747253,0.244422244422244,32.4653701306088
1743433609100,11:06:49.100,70,-1,1312.82051282051,0.243978243978244,32.4653701306088
1743433609119,11:06:49.119,70,-1,1286.44688644689,0.244422244422244,32.4653701306088
1743433609139,11:06:49.139,70,-1,1267.39926739927,0.244422244422244,32.4653701306088
1743433609158,11:06:49.158,70,-1,1271.06227106227,0.244422244422244,32.4653701306088
1743433609178,11:06:49.178,70,-1,1268.13186813187,0.243978243978244,32.4653701306088
1743433609197,11:06:49.197,70,-1,1264.46886446886,0.243534243534243,32.4653701306088
1743433609217,11:06:49.217,70,-1,1254.21245421245,0.243978243978244,32.4653701306088
1743433609236,11:06:49.236,70,-1,1243.95604395604,0.243978243978244,32.4653701306088
1743433609256,11:06:49.256,70,-1,1245.42124542125,0.243978243978244,32.4653701306088
1743433609275,11:06:49.275,70,-1,1242.49084249084,0.243534243534243,32.4653701306088
1743433609295,11:06:49.295,70,-1,1237.36263736264,0.243534243534243,32.4653701306088
1743433609314,11:06:49.314,70,-1,1224.90842490842,0.243090243090243,32.4653701306088
1743433609334,11:06:49.334,70,-1,1215.38461538462,0.243090243090243,32.4653701306088
1743433609353,11:06:49.353,70,-1,1216.11721611722,0.243534243534243,32.4653701306088
1743433609373,11:06:49.373,70,-1,1251.28205128205,0.243534243534243,32.4653701306088
1743433609392,11:06:49.392,70,-1,1330.40293040293,0.243534243534243,32.4653701306088
1743433609412,11:06:49.412,70,-1,1408.05860805861,0.243090243090243,32.4653701306088
1743433609431,11:06:49.431,70,-1,1488.64468864469,0.243090243090243,32.4653701306088
1743433609451,11:06:49.451,70,-1,1547.98534798535,0.243090243090243,32.4653701306088
1743433609470,11:06:49.470,70,-1,1583.88278388278,0.243090243090243,32.4653701306088
1743433609490,11:06:49.490,70,-1,1589.01098901099,0.243090243090243,32.4653701306088
1743433609509,11:06:49.509,70,-1,1573.62637362637,0.243090243090243,32.4653701306088
1743433609529,11:06:49.529,70,-1,1545.05494505494,0.242646242646243,32.4653701306088
1743433609548,11:06:49.548,70,-1,1517.21611721612,0.242646242646243,32.4653701306088
1743433609568,11:06:49.568,70,-1,1493.77289377289,0.242646242646243,32.4653701306088
1743433609587,11:06:49.587,70,-1,1474.72527472527,0.242646242646243,32.4653701306088
1743433609607,11:06:49.607,70,-1,1438.09523809524,0.242646242646243,32.4653701306088
1743433609626,11:06:49.626,70,-1,1399.2673992674,0.242202242202242,32.4653701306088
1743433609646,11:06:49.646,70,-1,1374.35897435897,0.241758241758242,32.4653701306088
1743433609665,11:06:49.665,70,-1,1366.30036630037,0.241758241758242,32.4653701306088
1743433609685,11:06:49.685,70,-1,1376.55677655678,0.242202242202242,32.4653701306088
1743433609704,11:06:49.704,70,-1,1379.48717948718,0.242202242202242,32.4653701306088
1743433609724,11:06:49.724,70,-1,1383.15018315018,0.242202242202242,32.4653701306088
1743433609743,11:06:49.743,70,-1,1378.75457875458,0.241758241758242,32.4653701306088
1743433609763,11:06:49.763,70,-1,1361.90476190476,0.241758241758242,32.4653701306088
1743433609782,11:06:49.782,70,-1,1353.84615384615,0.241758241758242,32.4653701306088
1743433609802,11:06:49.802,70,-1,1334.06593406593,0.241758241758242,32.4653701306088
1743433609821,11:06:49.821,70,-1,1324.54212454212,0.241758241758242,32.4653701306088
1743433609841,11:06:49.841,70,-1,1306.95970695971,0.241758241758242,32.4653701306088
1743433609860,11:06:49.860,70,-1,1298.9010989011,0.241314241314241,32.4653701306088
1743433609880,11:06:49.880,70,-1,1290.10989010989,0.240870240870241,32.4653701306088
1743433609899,11:06:49.899,70,-1,1288.64468864469,0.240870240870241,32.4653701306088
1743433609919,11:06:49.919,70,-1,1282.78388278388,0.241314241314241,32.4653701306088
1743433609938,11:06:49.938,70,-1,1268.13186813187,0.241314241314241,32.4653701306088
1743433609958,11:06:49.958,70,-1,1257.14285714286,0.241314241314241,32.4653701306088
1743433609977,11:06:49.977,70,-1,1241.75824175824,0.240870240870241,32.4653701306088
1743433609997,11:06:49.997,70,-1,1236.63003663004,0.24042624042624,32.4653701306088
1743433610016,11:06:50.016,70,-1,1243.22344322344,0.24042624042624,32.4653701306088
1743433610036,11:06:50.036,70,-1,1243.22344322344,0.240870240870241,32.4653701306088
1743433610055,11:06:50.055,70,-1,1241.75824175824,0.240870240870241,32.4653701306088
1743433610075,11:06:50.075,70,-1,1237.36263736264,0.240870240870241,32.4653701306088
1743433610094,11:06:50.094,70,-1,1217.58241758242,0.24042624042624,32.4653701306088
1743433610114,11:06:50.114,70,-1,1216.11721611722,0.23998223998224,32.4653701306088
1743433610133,11:06:50.133,70,-1,1234.43223443223,0.23998223998224,32.4653701306088
1743433610153,11:06:50.153,70,-1,1287.17948717949,0.24042624042624,32.4653701306088
1743433610172,11:06:50.172,70,-1,1371.42857142857,0.24042624042624,32.4653701306088
1743433610192,11:06:50.192,70,-1,1444.68864468864,0.23998223998224,32.4653701306088
1743433610211,11:06:50.211,70,-1,1515.01831501831,0.23998223998224,32.4653701306088
1743433610231,11:06:50.231,70,-1,1575.82417582418,0.23998223998224,32.4653701306088
1743433610250,11:06:50.250,70,-1,1627.83882783883,0.23998223998224,32.4653701306088
1743433610270,11:06:50.270,70,-1,1649.81684981685,0.23998223998224,32.4653701306088
1743433610289,11:06:50.289,70,-1,1633.69963369963,0.23998223998224,32.4653701306088
1743433610309,11:06:50.309,70,-1,1593.40659340659,0.23998223998224,32.4653701306088
1743433610328,11:06:50.328,70,-1,1566.30036630037,0.23953823953824,32.4653701306088
1743433610348,11:06:50.348,70,-1,1546.52014652015,0.23953823953824,32.4653701306088
1743433610367,11:06:50.367,70,-1,1538.46153846154,0.23953823953824,32.4653701306088
1743433610387,11:06:50.387,70,-1,1522.34432234432,0.23998223998224,32.4653701306088
1743433610406,11:06:50.406,70,-1,1499.6336996337,0.23953823953824,32.4653701306088
1743433610426,11:06:50.426,70,-1,1481.31868131868,0.23953823953824,32.4653701306088
1743433610445,11:06:50.445,70,-1,1460.80586080586,0.23953823953824,32.4653701306088
1743433610465,11:06:50.465,70,-1,1441.02564102564,0.239094239094239,32.4653701306088
1743433610484,11:06:50.484,70,-1,1415.38461538462,0.239094239094239,32.4653701306088
1743433610504,11:06:50.504,70,-1,1389.74358974359,0.23953823953824,32.4653701306088
1743433610523,11:06:50.523,70,-1,1378.02197802198,0.23953823953824,32.4653701306088
1743433610543,11:06:50.543,70,-1,1383.88278388278,0.239094239094239,32.4653701306088
1743433610562,11:06:50.562,70,-1,1391.94139194139,0.239094239094239,32.4653701306088
1743433610582,11:06:50.582,70,-1,1390.47619047619,0.238650238650239,32.4653701306088
1743433610601,11:06:50.601,70,-1,1384.61538461538,0.239094239094239,32.4653701306088
1743433610621,11:06:50.621,70,-1,1369.23076923077,0.239094239094239,32.4653701306088
1743433610640,11:06:50.640,70,-1,1345.78754578755,0.239094239094239,32.4653701306088
1743433610660,11:06:50.660,70,-1,1323.07692307692,0.239094239094239,32.4653701306088
1743433610679,11:06:50.679,70,-1,1298.1684981685,0.238650238650239,32.4653701306088
1743433610699,11:06:50.699,70,-1,1283.51648351648,0.238650238650239,32.4653701306088
1743433610718,11:06:50.718,70,-1,1276.92307692308,0.238650238650239,32.4653701306088
1743433610738,11:06:50.738,70,-1,1279.85347985348,0.239094239094239,32.4653701306088
1743433610757,11:06:50.757,70,-1,1276.92307692308,0.239094239094239,32.4653701306088
1743433610777,11:06:50.777,70,-1,1264.46886446886,0.238650238650239,32.4653701306088
1743433610796,11:06:50.796,70,-1,1263.73626373626,0.238650238650239,32.4653701306088
1743433610816,11:06:50.816,70,-1,1278.38827838828,0.238206238206238,32.4653701306088
1743433610835,11:06:50.835,70,-1,1293.04029304029,0.238206238206238,32.4653701306088
1743433610855,11:06:50.855,70,-1,1280.58608058608,0.238650238650239,32.4653701306088
1743433610874,11:06:50.874,70,-1,1266.66666666667,0.238206238206238,32.4653701306088
1743433610894,11:06:50.894,70,-1,1264.46886446886,0.238206238206238,32.4653701306088
1743433610913,11:06:50.913,70,-1,1265.20146520147,0.238206238206238,32.4653701306088
1743433610933,11:06:50.933,70,-1,1274.72527472527,0.237762237762238,32.4653701306088
1743433610952,11:06:50.952,70,-1,1295.9706959707,0.238206238206238,32.4653701306088
1743433610972,11:06:50.972,70,-1,1339.19413919414,0.238206238206238,32.4653701306088
1743433610991,11:06:50.991,70,-1,1421.24542124542,0.237762237762238,32.4653701306088
1743433611011,11:06:51.011,81,-1,1509.89010989011,0.237762237762238,32.4653701306088
1743433611030,11:06:51.030,81,-1,1581.68498168498,0.237762237762238,32.4653701306088
1743433611050,11:06:51.050,81,-1,1636.63003663004,0.237762237762238,32.4653701306088
1743433611069,11:06:51.069,81,-1,1665.20146520146,0.237762237762238,32.4653701306088
1743433611089,11:06:51.089,81,-1,1669.59706959707,0.237762237762238,32.4653701306088
1743433611108,11:06:51.108,81,-1,1659.34065934066,0.237762237762238,32.4653701306088
1743433611128,11:06:51.128,81,-1,1644.68864468864,0.237318237318237,32.4653701306088
1743433611147,11:06:51.147,81,-1,1621.24542124542,0.237318237318237,32.4653701306088
1743433611167,11:06:51.167,81,-1,1606.59340659341,0.236874236874237,32.4653701306088
1743433611186,11:06:51.186,81,-1,1589.74358974359,0.237318237318237,32.4653701306088
1743433611206,11:06:51.206,81,-1,1564.10256410256,0.237318237318237,32.4653701306088
1743433611225,11:06:51.225,81,-1,1512.08791208791,0.237318237318237,32.4653701306088
1743433611245,11:06:51.245,81,-1,1482.78388278388,0.237318237318237,32.4653701306088
1743433611264,11:06:51.264,81,-1,1457.14285714286,0.236874236874237,32.4653701306088
1743433611284,11:06:51.284,81,-1,1443.95604395604,0.236874236874237,32.4653701306088
1743433611303,11:06:51.303,81,-1,1436.63003663004,0.237318237318237,32.4653701306088
1743433611323,11:06:51.323,81,-1,1427.83882783883,0.236874236874237,32.4653701306088
1743433611342,11:06:51.342,81,-1,1427.83882783883,0.236874236874237,32.4653701306088
1743433611362,11:06:51.362,81,-1,1424.17582417582,0.236874236874237,32.4653701306088
1743433611381,11:06:51.381,81,-1,1402.9304029304,0.236874236874237,32.4653701306088
1743433611401,11:06:51.401,81,-1,1386.08058608059,0.236874236874237,32.4653701306088
1743433611420,11:06:51.420,81,-1,1383.88278388278,0.236430236430236,32.4653701306088
1743433611440,11:06:51.440,81,-1,1374.35897435897,0.236874236874237,32.4653701306088
1743433611459,11:06:51.459,81,-1,1363.36996336996,0.236430236430236,32.4653701306088
1743433611479,11:06:51.479,81,-1,1353.84615384615,0.236430236430236,32.4653701306088
1743433611498,11:06:51.498,81,-1,1339.19413919414,0.236430236430236,32.4653701306088
1743433611518,11:06:51.518,81,-1,1319.41391941392,0.236430236430236,32.4653701306088
1743433611537,11:06:51.537,81,-1,1304.7619047619,0.236430236430236,32.4653701306088
1743433611557,11:06:51.557,81,-1,1297.4358974359,0.236430236430236,32.4653701306088
1743433611576,11:06:51.576,81,-1,1294.50549450549,0.236430236430236,32.4653701306088
1743433611596,11:06:51.596,81,-1,1292.30769230769,0.235986235986236,32.4653701306088
1743433611615,11:06:51.615,81,-1,1287.91208791209,0.235986235986236,32.4653701306088
1743433611635,11:06:51.635,81,-1,1282.78388278388,0.235986235986236,32.4653701306088
1743433611654,11:06:51.654,81,-1,1278.38827838828,0.235986235986236,32.4653701306088
1743433611674,11:06:51.674,81,-1,1279.85347985348,0.235986235986236,32.4653701306088
1743433611693,11:06:51.693,81,-1,1280.58608058608,0.235986235986236,32.4653701306088
1743433611713,11:06:51.713,81,-1,1270.32967032967,0.235542235542236,32.4653701306088
1743433611732,11:06:51.732,81,-1,1254.21245421245,0.235542235542236,32.4653701306088
1743433611752,11:06:51.752,81,-1,1241.75824175824,0.235542235542236,32.4653701306088
1743433611771,11:06:51.771,81,-1,1237.36263736264,0.235542235542236,32.4653701306088
1743433611791,11:06:51.791,81,-1,1261.53846153846,0.235986235986236,32.4653701306088
