RawTimestamp,LocalTime,HR_Direct,HR_Buffered,PPG,GSR,Temperature
1743369713687,17:21:53.687,-1,-1,0,0.582306582306582,26.4608428180218
1743369713707,17:21:53.707,-1,-1,0,0.582306582306582,26.4608428180218
1743369713726,17:21:53.726,-1,-1,0,3.22563009130173,26.4608428180218
1743369713746,17:21:53.746,-1,-1,0,3.22563009130173,26.4608428180218
1743369713765,17:21:53.765,-1,-1,0,3.22563009130173,26.4608428180218
1743369713785,17:21:53.785,-1,-1,0,3.22563009130173,26.4608428180218
1743369713804,17:21:53.804,-1,-1,0,3.22563009130173,26.4608428180218
1743369713824,17:21:53.824,-1,-1,0,3.23416420977397,26.4608428180218
1743369713843,17:21:53.843,-1,-1,0,3.23416420977397,26.4608428180218
1743369713863,17:21:53.863,-1,-1,0,3.23416420977397,26.4608428180218
1743369713882,17:21:53.882,-1,-1,0,3.23416420977397,26.4608428180218
1743369713902,17:21:53.902,-1,-1,0,3.23416420977397,26.4608428180218
1743369713921,17:21:53.921,-1,-1,0,3.25934065934066,26.4608428180218
1743369713941,17:21:53.941,-1,-1,0,3.26227106227106,26.4608428180218
1743369713960,17:21:53.960,-1,-1,0,3.26520146520147,26.4608428180218
1743369713980,17:21:53.980,-1,-1,0,3.26666666666667,26.4608428180218
1743369713999,17:21:53.999,-1,-1,0,3.26666666666667,26.4608428180218
1743369714019,17:21:54.019,-1,-1,0,3.26813186813187,26.4608428180218
1743369714038,17:21:54.038,-1,-1,0,3.26959706959707,26.4608428180218
1743369714058,17:21:54.058,-1,-1,0,3.26959706959707,26.4608428180218
1743369714077,17:21:54.077,-1,-1,0,3.26813186813187,26.4608428180218
1743369714097,17:21:54.097,-1,-1,0,3.26959706959707,26.4608428180218
1743369714116,17:21:54.116,-1,-1,0,3.26959706959707,26.4608428180218
1743369714136,17:21:54.136,-1,-1,0,3.26813186813187,26.4608428180218
1743369714155,17:21:54.155,-1,-1,0,3.26813186813187,26.4608428180218
1743369714175,17:21:54.175,-1,-1,0,3.26813186813187,26.4608428180218
1743369714194,17:21:54.194,-1,-1,0,3.26666666666667,26.4608428180218
1743369714214,17:21:54.214,-1,-1,0,3.26666666666667,26.4608428180218
1743369714233,17:21:54.233,-1,-1,0,3.26520146520147,26.4608428180218
1743369714253,17:21:54.253,-1,-1,0,3.26520146520147,26.4608428180218
1743369714272,17:21:54.272,-1,-1,0,3.26373626373626,26.4608428180218
1743369714292,17:21:54.292,-1,-1,0,3.26373626373626,26.4608428180218
1743369714311,17:21:54.311,-1,-1,0,3.26227106227106,26.4608428180218
1743369714331,17:21:54.331,-1,-1,0,3.26080586080586,26.4608428180218
1743369714350,17:21:54.350,-1,-1,0,3.25934065934066,26.4608428180218
1743369714370,17:21:54.370,-1,-1,0,3.25787545787546,26.4608428180218
1743369714389,17:21:54.389,-1,-1,0,3.25641025641026,26.4608428180218
1743369714409,17:21:54.409,-1,-1,0,3.25494505494505,26.4608428180218
1743369714428,17:21:54.428,-1,-1,0,3.25347985347985,26.4608428180218
1743369714448,17:21:54.448,-1,-1,0,3.25347985347985,26.4608428180218
1743369714467,17:21:54.467,-1,-1,0,3.25054945054945,26.4608428180218
1743369714487,17:21:54.487,-1,-1,0,3.24908424908425,26.4608428180218
1743369714506,17:21:54.506,-1,-1,0,3.24761904761905,26.4608428180218
1743369714526,17:21:54.526,-1,-1,0,3.24615384615385,26.4608428180218
1743369714545,17:21:54.545,-1,-1,0,3.24468864468864,26.4608428180218
1743369714565,17:21:54.565,-1,-1,0,3.24322344322344,26.4608428180218
1743369714584,17:21:54.584,-1,-1,0,3.24175824175824,26.4608428180218
1743369714604,17:21:54.604,-1,-1,0,3.23882783882784,33.5061711677117
1743369714623,17:21:54.623,-1,-1,0,3.23443223443223,33.5061711677117
1743369714643,17:21:54.643,-1,-1,0,3.23296703296703,33.5061711677117
1743369714662,17:21:54.662,-1,-1,0,3.23003663003663,33.5061711677117
1743369714682,17:21:54.682,-1,-1,0,3.22564102564103,33.5061711677117
1743369714701,17:21:54.701,-1,-1,0,3.22271062271062,33.5061711677117
1743369714721,17:21:54.721,-1,-1,0,3.21978021978022,33.5061711677117
1743369714740,17:21:54.740,-1,-1,0,3.21684981684982,33.5061711677117
1743369714760,17:21:54.760,-1,-1,0,3.21245421245421,33.5061711677117
1743369714779,17:21:54.779,-1,-1,0,3.20952380952381,33.5061711677117
1743369714799,17:21:54.799,-1,-1,0,3.2051282051282,33.5061711677117
1743369714818,17:21:54.818,-1,-1,0,3.2007326007326,33.5061711677117
1743369714838,17:21:54.838,-1,-1,0,3.1948717948718,33.5061711677117
1743369714857,17:21:54.857,-1,-1,0,3.18901098901099,33.5061711677117
1743369714877,17:21:54.877,-1,-1,0,3.18315018315018,33.5061711677117
1743369714896,17:21:54.896,-1,-1,0,3.17582417582418,33.5061711677117
1743369714916,17:21:54.916,-1,-1,0,3.17289377289377,33.5061711677117
1743369714935,17:21:54.935,-1,-1,0,3.16410256410256,33.5061711677117
1743369714955,17:21:54.955,-1,-1,0,3.14652014652015,33.5061711677117
1743369714974,17:21:54.974,-1,-1,0,3.13040293040293,33.5061711677117
1743369714994,17:21:54.994,-1,-1,201.465201465201,3.11282051282051,33.5061711677117
1743369715013,17:21:55.013,-1,-1,787.545787545787,3.09377289377289,33.5061711677117
1743369715033,17:21:55.033,-1,-1,1306.22710622711,3.07179487179487,33.5061711677117
1743369715052,17:21:55.052,-1,-1,1642.49084249084,3.04835164835165,33.5061711677117
1743369715072,17:21:55.072,-1,-1,1812.45421245421,3.02637362637363,33.5061711677117
1743369715091,17:21:55.091,-1,-1,1858.60805860806,3.00732600732601,33.5061711677117
1743369715111,17:21:55.111,-1,-1,1822.71062271062,2.98241758241758,33.5061711677117
1743369715130,17:21:55.130,-1,-1,1731.13553113553,2.96043956043956,33.5061711677117
1743369715150,17:21:55.150,-1,-1,1624.17582417582,2.94139194139194,33.5061711677117
1743369715169,17:21:55.169,-1,-1,1517.94871794872,2.92527472527473,33.5061711677117
1743369715189,17:21:55.189,-1,-1,1422.71062271062,2.91208791208791,33.5061711677117
1743369715208,17:21:55.208,-1,-1,1340.65934065934,2.9003663003663,33.5061711677117
1743369715228,17:21:55.228,-1,-1,1286.44688644689,2.89157509157509,33.5061711677117
1743369715247,17:21:55.247,-1,-1,1261.53846153846,2.88424908424908,33.5061711677117
1743369715267,17:21:55.267,-1,-1,1273.26007326007,2.87692307692308,33.5061711677117
1743369715286,17:21:55.286,-1,-1,1293.04029304029,2.87252747252747,33.5061711677117
1743369715306,17:21:55.306,-1,-1,1293.77289377289,2.86666666666667,33.5061711677117
1743369715325,17:21:55.325,-1,-1,1287.91208791209,2.86080586080586,33.5061711677117
1743369715345,17:21:55.345,-1,-1,1285.71428571429,2.85347985347985,33.5061711677117
1743369715364,17:21:55.364,-1,-1,1275.45787545788,2.84615384615385,33.5061711677117
1743369715384,17:21:55.384,-1,-1,1260.07326007326,2.83736263736264,33.5061711677117
1743369715403,17:21:55.403,-1,-1,1233.69963369963,2.83003663003663,33.5061711677117
1743369715423,17:21:55.423,-1,-1,1205.86080586081,2.82124542124542,33.5061711677117
1743369715442,17:21:55.442,-1,-1,1175.82417582418,2.80952380952381,33.5061711677117
1743369715462,17:21:55.462,-1,-1,1134.06593406593,2.796336996337,33.5061711677117
1743369715481,17:21:55.481,-1,-1,1104.7619047619,2.78461538461538,33.5061711677117
1743369715501,17:21:55.501,-1,-1,1089.37728937729,2.77142857142857,33.5061711677117
1743369715520,17:21:55.520,-1,-1,1082.78388278388,2.75677655677656,33.5061711677117
1743369715540,17:21:55.540,-1,-1,1068.13186813187,2.74505494505494,33.5061711677117
1743369715559,17:21:55.559,-1,-1,1063.00366300366,2.73040293040293,33.5061711677117
1743369715579,17:21:55.579,-1,-1,1139.92673992674,2.71282051282051,33.5061711677117
1743369715598,17:21:55.598,-1,-1,1314.28571428571,2.69377289377289,33.5261841042666
1743369715618,17:21:55.618,-1,-1,1555.31135531136,2.67912087912088,33.5261841042666
1743369715637,17:21:55.637,-1,-1,1808.05860805861,2.66446886446886,33.5261841042666
1743369715657,17:21:55.657,-1,-1,1989.74358974359,2.64981684981685,33.5261841042666
1743369715676,17:21:55.676,-1,-1,2079.12087912088,2.63663003663004,33.5261841042666
1743369715696,17:21:55.696,-1,-1,2083.51648351648,2.62783882783883,33.5261841042666
1743369715715,17:21:55.715,-1,-1,2029.30402930403,2.62051282051282,33.5261841042666
1743369715735,17:21:55.735,-1,-1,1936.26373626374,2.61318681318681,33.5261841042666
1743369715754,17:21:55.754,-1,-1,1839.56043956044,2.6043956043956,33.5261841042666
1743369715774,17:21:55.774,-1,-1,1752.38095238095,2.5970695970696,33.5261841042666
1743369715793,17:21:55.793,-1,-1,1661.53846153846,2.58974358974359,33.5261841042666
1743369715813,17:21:55.813,-1,-1,1552.38095238095,2.57948717948718,33.5261841042666
1743369715832,17:21:55.832,-1,-1,1452.74725274725,2.56923076923077,33.5261841042666
1743369715852,17:21:55.852,-1,-1,1384.61538461538,2.56190476190476,33.5261841042666
1743369715871,17:21:55.871,-1,-1,1364.10256410256,2.55311355311355,33.5261841042666
1743369715891,17:21:55.891,-1,-1,1388.27838827839,2.54578754578755,33.5261841042666
1743369715910,17:21:55.910,-1,-1,1407.32600732601,2.53992673992674,33.5261841042666
1743369715930,17:21:55.930,-1,-1,1407.32600732601,2.53553113553113,33.5261841042666
1743369715949,17:21:55.949,-1,-1,1394.13919413919,2.53553113553113,33.5261841042666
1743369715969,17:21:55.969,-1,-1,1375.09157509157,2.53699633699634,33.5261841042666
1743369715988,17:21:55.988,-1,-1,1344.32234432234,2.54139194139194,33.5261841042666
1743369716008,17:21:56.008,-1,-1,1301.0989010989,2.55164835164835,33.5261841042666
1743369716027,17:21:56.027,-1,-1,1269.59706959707,2.56923076923077,33.5261841042666
1743369716047,17:21:56.047,-1,-1,1241.02564102564,2.60732600732601,33.5261841042666
1743369716066,17:21:56.066,-1,-1,1216.84981684982,2.66007326007326,33.5261841042666
1743369716086,17:21:56.086,-1,-1,1191.20879120879,2.71282051282051,33.5261841042666
1743369716105,17:21:56.105,-1,-1,1164.10256410256,2.75824175824176,33.5261841042666
1743369716125,17:21:56.125,-1,-1,1138.46153846154,2.79194139194139,33.5261841042666
1743369716144,17:21:56.144,-1,-1,1110.62271062271,2.82124542124542,33.5261841042666
1743369716164,17:21:56.164,-1,-1,1086.44688644689,2.84908424908425,33.5261841042666
1743369716183,17:21:56.183,-1,-1,1072.52747252747,2.87838827838828,33.5261841042666
1743369716203,17:21:56.203,-1,-1,1080.58608058608,2.9047619047619,33.5261841042666
1743369716222,17:21:56.222,-1,-1,1161.17216117216,2.92820512820513,33.5261841042666
1743369716242,17:21:56.242,-1,-1,1354.57875457875,2.94285714285714,33.5261841042666
1743369716261,17:21:56.261,-1,-1,1611.72161172161,2.95897435897436,33.5261841042666
1743369716281,17:21:56.281,-1,-1,1853.47985347985,2.97362637362637,33.5261841042666
1743369716300,17:21:56.300,-1,-1,2033.69963369963,2.98827838827839,33.5261841042666
1743369716320,17:21:56.320,-1,-1,2148.71794871795,3.0014652014652,33.5261841042666
1743369716339,17:21:56.339,-1,-1,2181.68498168498,3.01318681318681,33.5261841042666
1743369716359,17:21:56.359,-1,-1,2161.17216117216,3.02197802197802,33.5261841042666
1743369716378,17:21:56.378,-1,-1,2104.7619047619,3.02930402930403,33.5261841042666
1743369716398,17:21:56.398,-1,-1,2026.37362637363,3.03809523809524,33.5261841042666
1743369716417,17:21:56.417,-1,-1,1934.79853479853,3.04542124542125,33.5261841042666
1743369716437,17:21:56.437,-1,-1,1841.02564102564,3.05274725274725,33.5261841042666
1743369716456,17:21:56.456,-1,-1,1736.26373626374,3.05421245421245,33.5261841042666
1743369716476,17:21:56.476,-1,-1,1616.84981684982,3.05860805860806,33.5261841042666
1743369716495,17:21:56.495,-1,-1,1506.22710622711,3.06446886446886,33.5261841042666
1743369716515,17:21:56.515,-1,-1,1446.15384615385,3.07032967032967,33.5261841042666
1743369716534,17:21:56.534,-1,-1,1427.83882783883,3.07765567765568,33.5261841042666
1743369716554,17:21:56.554,-1,-1,1427.10622710623,3.08351648351648,33.5261841042666
1743369716573,17:21:56.573,-1,-1,1427.10622710623,3.08937728937729,33.5261841042666
1743369716593,17:21:56.593,-1,-1,1419.78021978022,3.09523809523809,33.5361905376194
1743369716612,17:21:56.612,-1,-1,1393.40659340659,3.0996336996337,33.5361905376194
1743369716632,17:21:56.632,-1,-1,1361.90476190476,3.10549450549451,33.5361905376194
1743369716651,17:21:56.651,-1,-1,1331.13553113553,3.10842490842491,33.5361905376194
1743369716671,17:21:56.671,-1,-1,1296.7032967033,3.11282051282051,33.5361905376194
1743369716690,17:21:56.690,-1,-1,1245.42124542125,3.11575091575092,33.5361905376194
1743369716710,17:21:56.710,-1,-1,1214.65201465201,3.12014652014652,33.5361905376194
1743369716729,17:21:56.729,-1,-1,1188.27838827839,3.12161172161172,33.5361905376194
1743369716749,17:21:56.749,-1,-1,1174.35897435897,3.12307692307692,33.5361905376194
1743369716768,17:21:56.768,-1,-1,1164.10256410256,3.12014652014652,33.5361905376194
1743369716788,17:21:56.788,-1,-1,1156.77655677656,3.12307692307692,33.5361905376194
1743369716807,17:21:56.807,-1,-1,1133.33333333333,3.12454212454212,33.5361905376194
1743369716827,17:21:56.827,-1,-1,1114.28571428571,3.12600732600733,33.5361905376194
1743369716846,17:21:56.846,-1,-1,1098.9010989011,3.12600732600733,33.5361905376194
1743369716866,17:21:56.866,-1,-1,1071.06227106227,3.12747252747253,33.5361905376194
1743369716885,17:21:56.885,-1,-1,1046.15384615385,3.12893772893773,33.5361905376194
1743369716905,17:21:56.905,-1,-1,1044.68864468864,3.12747252747253,33.5361905376194
1743369716924,17:21:56.924,-1,-1,1117.94871794872,3.12307692307692,33.5361905376194
1743369716944,17:21:56.944,-1,-1,1298.9010989011,3.11721611721612,33.5361905376194
1743369716963,17:21:56.963,-1,-1,1557.50915750916,3.11575091575092,33.5361905376194
1743369716983,17:21:56.983,-1,-1,1835.16483516484,3.11575091575092,33.5361905376194
1743369717002,17:21:57.002,-1,-1,2046.15384615385,3.12014652014652,33.5361905376194
1743369717022,17:21:57.022,-1,-1,2166.30036630037,3.12600732600733,33.5361905376194
1743369717041,17:21:57.041,-1,-1,2223.44322344322,3.13186813186813,33.5361905376194
1743369717061,17:21:57.061,-1,-1,2205.12820512821,3.13333333333333,33.5361905376194
1743369717080,17:21:57.080,-1,-1,2128.93772893773,3.13479853479853,33.5361905376194
1743369717100,17:21:57.100,-1,-1,2049.08424908425,3.13626373626374,33.5361905376194
1743369717119,17:21:57.119,-1,-1,1967.76556776557,3.13626373626374,33.5361905376194
1743369717139,17:21:57.139,-1,-1,1872.52747252747,3.13186813186813,33.5361905376194
1743369717158,17:21:57.158,-1,-1,1760.43956043956,3.11428571428571,33.5361905376194
1743369717178,17:21:57.178,-1,-1,1637.36263736264,3.1025641025641,33.5361905376194
1743369717197,17:21:57.197,-1,-1,1535.53113553114,3.0981684981685,33.5361905376194
1743369717217,17:21:57.217,-1,-1,1456.41025641026,3.09523809523809,33.5361905376194
1743369717236,17:21:57.236,-1,-1,1400,3.09377289377289,33.5361905376194
1743369717256,17:21:57.256,-1,-1,1391.94139194139,3.09377289377289,33.5361905376194
1743369717275,17:21:57.275,-1,-1,1407.32600732601,3.09523809523809,33.5361905376194
1743369717295,17:21:57.295,-1,-1,1413.18681318681,3.09523809523809,33.5361905376194
1743369717314,17:21:57.314,-1,-1,1406.59340659341,3.09230769230769,33.5361905376194
1743369717334,17:21:57.334,-1,-1,1383.88278388278,3.10695970695971,33.5361905376194
1743369717353,17:21:57.353,-1,-1,1345.05494505494,3.12307692307692,33.5361905376194
1743369717373,17:21:57.373,-1,-1,1304.7619047619,3.12893772893773,33.5361905376194
1743369717392,17:21:57.392,-1,-1,1266.66666666667,3.12893772893773,33.5361905376194
1743369717412,17:21:57.412,-1,-1,1232.23443223443,3.13040293040293,33.5361905376194
1743369717431,17:21:57.431,-1,-1,1197.8021978022,3.13040293040293,33.5361905376194
1743369717451,17:21:57.451,-1,-1,1144.32234432234,3.13040293040293,33.5361905376194
1743369717470,17:21:57.470,-1,-1,1098.1684981685,3.13040293040293,33.5361905376194
1743369717490,17:21:57.490,-1,-1,1049.81684981685,3.13040293040293,33.5361905376194
1743369717509,17:21:57.509,-1,-1,1027.83882783883,3.12893772893773,33.5361905376194
1743369717529,17:21:57.529,-1,-1,1031.50183150183,3.12600732600733,33.5361905376194
1743369717548,17:21:57.548,-1,-1,1035.89743589744,3.12600732600733,33.5361905376194
1743369717568,17:21:57.568,-1,-1,1037.36263736264,3.12454212454212,33.5361905376194
1743369717587,17:21:57.587,-1,-1,1033.69963369963,3.12454212454212,33.5411937455647
1743369717607,17:21:57.607,-1,-1,1032.96703296703,3.12454212454212,33.5411937455647
1743369717626,17:21:57.626,-1,-1,1032.96703296703,3.12307692307692,33.5411937455647
1743369717646,17:21:57.646,-1,-1,1056.41025641026,3.12307692307692,33.5411937455647
1743369717665,17:21:57.665,-1,-1,1071.79487179487,3.12161172161172,33.5411937455647
1743369717685,17:21:57.685,-1,-1,1078.38827838828,3.12161172161172,33.5411937455647
1743369717704,17:21:57.704,-1,-1,1090.10989010989,3.12161172161172,33.5411937455647
1743369717724,17:21:57.724,-1,-1,1160.43956043956,3.12014652014652,33.5411937455647
1743369717743,17:21:57.743,-1,-1,1350.91575091575,3.12014652014652,33.5411937455647
1743369717763,17:21:57.763,-1,-1,1616.84981684982,3.12014652014652,33.5411937455647
1743369717782,17:21:57.782,-1,-1,1867.39926739927,3.12014652014652,33.5411937455647
1743369717802,17:21:57.802,-1,-1,2055.67765567766,3.11868131868132,33.5411937455647
1743369717821,17:21:57.821,-1,-1,2172.89377289377,3.11868131868132,33.5411937455647
1743369717841,17:21:57.841,-1,-1,2214.65201465201,3.11721611721612,33.5411937455647
1743369717860,17:21:57.860,-1,-1,2202.9304029304,3.11721611721612,33.5411937455647
1743369717880,17:21:57.880,-1,-1,2145.05494505494,3.11575091575092,33.5411937455647
1743369717899,17:21:57.899,-1,-1,2054.94505494505,3.11575091575092,33.5411937455647
1743369717919,17:21:57.919,-1,-1,1973.62637362637,3.11575091575092,33.5411937455647
1743369717938,17:21:57.938,-1,-1,1890.10989010989,3.11428571428571,33.5411937455647
1743369717958,17:21:57.958,-1,-1,1784.61538461538,3.11428571428571,33.5411937455647
1743369717977,17:21:57.977,-1,-1,1661.53846153846,3.11282051282051,33.5411937455647
1743369717997,17:21:57.997,-1,-1,1542.12454212454,3.11282051282051,33.5411937455647
1743369718016,17:21:58.016,-1,-1,1459.34065934066,3.11282051282051,33.5411937455647
1743369718036,17:21:58.036,-1,-1,1410.98901098901,3.11135531135531,33.5411937455647
1743369718055,17:21:58.055,-1,-1,1399.2673992674,3.11135531135531,33.5411937455647
1743369718075,17:21:58.075,-1,-1,1398.5347985348,3.11135531135531,33.5411937455647
1743369718094,17:21:58.094,-1,-1,1393.40659340659,3.10989010989011,33.5411937455647
1743369718114,17:21:58.114,-1,-1,1383.88278388278,3.10989010989011,33.5411937455647
1743369718133,17:21:58.133,-1,-1,1371.42857142857,3.10989010989011,33.5411937455647
1743369718153,17:21:58.153,-1,-1,1350.91575091575,3.10989010989011,33.5411937455647
1743369718172,17:21:58.172,-1,-1,1298.1684981685,3.10842490842491,33.5411937455647
1743369718192,17:21:58.192,-1,-1,1238.82783882784,3.10695970695971,33.5411937455647
1743369718211,17:21:58.211,-1,-1,1195.6043956044,3.10842490842491,33.5411937455647
1743369718231,17:21:58.231,-1,-1,1164.83516483516,3.10695970695971,33.5411937455647
1743369718250,17:21:58.250,-1,-1,1150.91575091575,3.10549450549451,33.5411937455647
1743369718270,17:21:58.270,-1,-1,1128.93772893773,3.10549450549451,33.5411937455647
1743369718289,17:21:58.289,-1,-1,1093.77289377289,3.10549450549451,33.5411937455647
1743369718309,17:21:58.309,-1,-1,1084.98168498169,3.1040293040293,33.5411937455647
1743369718328,17:21:58.328,-1,-1,1073.99267399267,3.1025641025641,33.5411937455647
1743369718348,17:21:58.348,-1,-1,1060.80586080586,3.1025641025641,33.5411937455647
1743369718367,17:21:58.367,-1,-1,1052.74725274725,3.1010989010989,33.5411937455647
1743369718387,17:21:58.387,-1,-1,1045.42124542125,3.0996336996337,33.5411937455647
1743369718406,17:21:58.406,-1,-1,1032.96703296703,3.0981684981685,33.5411937455647
1743369718426,17:21:58.426,-1,-1,1028.57142857143,3.0981684981685,33.5411937455647
1743369718445,17:21:58.445,-1,-1,1022.71062271062,3.0967032967033,33.5411937455647
1743369718465,17:21:58.465,-1,-1,1004.3956043956,3.09523809523809,33.5411937455647
1743369718484,17:21:58.484,-1,-1,1001.4652014652,3.09523809523809,33.5411937455647
1743369718504,17:21:58.504,-1,-1,1010.98901098901,3.09523809523809,33.5411937455647
1743369718523,17:21:58.523,-1,-1,1008.05860805861,3.09377289377289,33.5411937455647
1743369718543,17:21:58.543,-1,-1,1007.32600732601,3.09377289377289,33.5411937455647
1743369718562,17:21:58.562,-1,-1,1065.20146520147,3.09230769230769,33.5411937455647
1743369718582,17:21:58.582,-1,-1,1232.23443223443,3.09377289377289,33.5512001439929
1743369718601,17:21:58.601,-1,-1,1497.4358974359,3.09377289377289,33.5512001439929
1743369718621,17:21:58.621,-1,-1,1780.95238095238,3.09523809523809,33.5512001439929
1743369718640,17:21:58.640,-1,-1,2024.17582417582,3.09523809523809,33.5512001439929
1743369718660,17:21:58.660,-1,-1,2175.82417582418,3.09523809523809,33.5512001439929
1743369718679,17:21:58.679,-1,-1,2246.88644688645,3.09523809523809,33.5512001439929
1743369718699,17:21:58.699,-1,-1,2252.74725274725,3.1040293040293,33.5512001439929
1743369718718,17:21:58.718,-1,-1,2207.32600732601,3.10549450549451,33.5512001439929
1743369718738,17:21:58.738,-1,-1,2139.19413919414,3.1040293040293,33.5512001439929
1743369718757,17:21:58.757,-1,-1,2052.01465201465,3.1010989010989,33.5512001439929
1743369718777,17:21:58.777,-1,-1,1952.38095238095,3.0996336996337,33.5512001439929
1743369718796,17:21:58.796,-1,-1,1851.28205128205,3.0981684981685,33.5512001439929
1743369718816,17:21:58.816,-1,-1,1745.05494505494,3.0967032967033,33.5512001439929
1743369718835,17:21:58.835,-1,-1,1634.43223443223,3.09523809523809,33.5512001439929
1743369718855,17:21:58.855,-1,-1,1538.46153846154,3.09377289377289,33.5512001439929
1743369718874,17:21:58.874,-1,-1,1465.93406593407,3.09377289377289,33.5512001439929
1743369718894,17:21:58.894,-1,-1,1420.51282051282,3.09230769230769,33.5512001439929
1743369718913,17:21:58.913,-1,-1,1404.3956043956,3.09230769230769,33.5512001439929
1743369718933,17:21:58.933,-1,-1,1400,3.09084249084249,33.5512001439929
1743369718952,17:21:58.952,-1,-1,1396.336996337,3.08937728937729,33.5512001439929
1743369718972,17:21:58.972,-1,-1,1397.0695970696,3.08937728937729,33.5512001439929
1743369718991,17:21:58.991,-1,-1,1394.87179487179,3.08791208791209,33.5512001439929
1743369719011,17:21:59.011,-1,-1,1372.89377289377,3.08791208791209,33.5512001439929
1743369719030,17:21:59.030,-1,-1,1329.67032967033,3.08644688644689,33.5512001439929
1743369719050,17:21:59.050,-1,-1,1276.92307692308,3.08644688644689,33.5512001439929
1743369719069,17:21:59.069,-1,-1,1229.30402930403,3.08644688644689,33.5512001439929
1743369719089,17:21:59.089,-1,-1,1189.01098901099,3.08498168498168,33.5512001439929
1743369719108,17:21:59.108,-1,-1,1145.78754578755,3.08498168498168,33.5512001439929
1743369719128,17:21:59.128,-1,-1,1109.89010989011,3.08351648351648,33.5512001439929
1743369719147,17:21:59.147,-1,-1,1092.30769230769,3.08351648351648,33.5512001439929
1743369719167,17:21:59.167,-1,-1,1082.78388278388,3.08205128205128,33.5512001439929
1743369719186,17:21:59.186,-1,-1,1076.92307692308,3.08205128205128,33.5512001439929
1743369719206,17:21:59.206,-1,-1,1060.80586080586,3.08205128205128,33.5512001439929
1743369719225,17:21:59.225,-1,-1,1049.81684981685,3.08058608058608,33.5512001439929
1743369719245,17:21:59.245,-1,-1,1054.94505494505,3.07912087912088,33.5512001439929
1743369719264,17:21:59.264,-1,-1,1060.80586080586,3.07912087912088,33.5512001439929
1743369719284,17:21:59.284,-1,-1,1064.46886446886,3.07912087912088,33.5512001439929
1743369719303,17:21:59.303,-1,-1,1054.21245421245,3.07765567765568,33.5512001439929
1743369719323,17:21:59.323,-1,-1,1036.63003663004,3.07765567765568,33.5512001439929
1743369719342,17:21:59.342,-1,-1,1033.69963369963,3.07619047619048,33.5512001439929
1743369719362,17:21:59.362,-1,-1,1033.69963369963,3.07619047619048,33.5512001439929
1743369719381,17:21:59.381,-1,-1,1041.02564102564,3.07472527472527,33.5512001439929
1743369719401,17:21:59.401,-1,-1,1094.50549450549,3.07472527472527,33.5512001439929
1743369719420,17:21:59.420,-1,-1,1243.95604395604,3.07326007326007,33.5512001439929
1743369719440,17:21:59.440,-1,-1,1474.72527472527,3.07326007326007,33.5512001439929
1743369719459,17:21:59.459,-1,-1,1724.54212454212,3.07326007326007,33.5512001439929
1743369719479,17:21:59.479,-1,-1,1959.70695970696,3.07179487179487,33.5512001439929
1743369719498,17:21:59.498,-1,-1,2122.34432234432,3.07179487179487,33.5512001439929
1743369719518,17:21:59.518,-1,-1,2183.15018315018,3.07179487179487,33.5512001439929
1743369719537,17:21:59.537,-1,-1,2179.48717948718,3.07032967032967,33.5512001439929
1743369719557,17:21:59.557,-1,-1,2127.47252747253,3.07032967032967,33.5512001439929
1743369719576,17:21:59.576,-1,-1,2044.68864468864,3.07032967032967,33.5662096979795
1743369719596,17:21:59.596,-1,-1,1945.78754578755,3.07032967032967,33.5662096979795
1743369719615,17:21:59.615,-1,-1,1838.82783882784,3.07032967032967,33.5662096979795
1743369719635,17:21:59.635,-1,-1,1742.85714285714,3.06886446886447,33.5662096979795
1743369719654,17:21:59.654,-1,-1,1647.61904761905,3.06886446886447,33.5662096979795
1743369719674,17:21:59.674,-1,-1,1534.79853479853,3.06739926739927,33.5662096979795
1743369719693,17:21:59.693,-1,-1,1459.34065934066,3.06739926739927,33.5662096979795
1743369719713,17:21:59.713,-1,-1,1415.38461538462,3.06739926739927,33.5662096979795
1743369719732,17:21:59.732,-1,-1,1394.13919413919,3.06739926739927,33.5662096979795
1743369719752,17:21:59.752,-1,-1,1376.55677655678,3.06739926739927,33.5662096979795
1743369719771,17:21:59.771,-1,-1,1372.16117216117,3.06593406593407,33.5662096979795
1743369719791,17:21:59.791,-1,-1,1386.08058608059,3.06446886446886,33.5662096979795
1743369719810,17:21:59.810,-1,-1,1382.41758241758,3.06446886446886,33.5662096979795
1743369719830,17:21:59.830,-1,-1,1353.11355311355,3.06446886446886,33.5662096979795
1743369719849,17:21:59.849,-1,-1,1322.34432234432,3.06300366300366,33.5662096979795
1743369719869,17:21:59.869,-1,-1,1283.51648351648,3.06300366300366,33.5662096979795
1743369719888,17:21:59.888,-1,-1,1237.36263736264,3.06153846153846,33.5662096979795
1743369719908,17:21:59.908,-1,-1,1191.94139194139,3.06153846153846,33.5662096979795
1743369719927,17:21:59.927,-1,-1,1147.98534798535,3.06007326007326,33.5662096979795
1743369719947,17:21:59.947,-1,-1,1123.80952380952,3.06007326007326,33.5662096979795
1743369719966,17:21:59.966,-1,-1,1106.95970695971,3.06007326007326,33.5662096979795
1743369719986,17:21:59.986,-1,-1,1093.04029304029,3.06007326007326,33.5662096979795
1743369720005,17:22:00.005,-1,-1,1099.6336996337,3.05860805860806,33.5662096979795
1743369720025,17:22:00.025,-1,-1,1121.61172161172,3.05860805860806,33.5662096979795
1743369720044,17:22:00.044,-1,-1,1141.39194139194,3.05714285714286,33.5662096979795
1743369720064,17:22:00.064,-1,-1,1150.91575091575,3.05714285714286,33.5662096979795
1743369720083,17:22:00.083,-1,-1,1141.39194139194,3.05567765567766,33.5662096979795
1743369720103,17:22:00.103,-1,-1,1101.8315018315,3.05567765567766,33.5662096979795
1743369720122,17:22:00.122,-1,-1,1072.52747252747,3.05421245421245,33.5662096979795
1743369720142,17:22:00.142,-1,-1,1052.01465201465,3.05421245421245,33.5662096979795
1743369720161,17:22:00.161,-1,-1,1029.30402930403,3.05421245421245,33.5662096979795
1743369720181,17:22:00.181,-1,-1,1041.02564102564,3.05274725274725,33.5662096979795
1743369720200,17:22:00.200,-1,-1,1145.78754578755,3.05274725274725,33.5662096979795
1743369720220,17:22:00.220,-1,-1,1349.45054945055,3.05128205128205,33.5662096979795
1743369720239,17:22:00.239,-1,-1,1594.87179487179,3.05128205128205,33.5662096979795
1743369720259,17:22:00.259,-1,-1,1819.78021978022,3.05128205128205,33.5662096979795
1743369720278,17:22:00.278,-1,-1,1992.67399267399,3.04981684981685,33.5662096979795
1743369720298,17:22:00.298,-1,-1,2079.12087912088,3.04981684981685,33.5662096979795
1743369720317,17:22:00.317,-1,-1,2084.24908424908,3.04981684981685,33.5662096979795
1743369720337,17:22:00.337,-1,-1,2026.37362637363,3.04981684981685,33.5662096979795
1743369720356,17:22:00.356,-1,-1,1923.80952380952,3.04835164835165,33.5662096979795
1743369720376,17:22:00.376,-1,-1,1810.25641025641,3.04688644688645,33.5662096979795
1743369720395,17:22:00.395,-1,-1,1711.35531135531,3.04688644688645,33.5662096979795
1743369720415,17:22:00.415,-1,-1,1611.72161172161,3.04542124542125,33.5662096979795
1743369720434,17:22:00.434,-1,-1,1497.4358974359,3.04542124542125,33.5662096979795
1743369720454,17:22:00.454,-1,-1,1378.02197802198,3.04542124542125,33.5662096979795
1743369720473,17:22:00.473,-1,-1,1314.28571428571,3.04395604395604,33.5662096979795
1743369720493,17:22:00.493,-1,-1,1300.3663003663,3.04395604395604,33.5662096979795
1743369720512,17:22:00.512,-1,-1,1298.9010989011,3.04249084249084,33.5662096979795
1743369720532,17:22:00.532,-1,-1,1306.22710622711,3.04249084249084,33.5662096979795
1743369720551,17:22:00.551,-1,-1,1312.82051282051,3.04102564102564,33.5662096979795
1743369720571,17:22:00.571,-1,-1,1309.15750915751,3.04102564102564,33.5712128710002
1743369720590,17:22:00.590,-1,-1,1281.31868131868,3.04102564102564,33.5712128710002
1743369720610,17:22:00.610,-1,-1,1253.47985347985,3.03956043956044,33.5712128710002
1743369720629,17:22:00.629,-1,-1,1222.71062271062,3.03809523809524,33.5712128710002
1743369720649,17:22:00.649,-1,-1,1192.67399267399,3.03956043956044,33.5712128710002
1743369720668,17:22:00.668,-1,-1,1156.77655677656,3.03809523809524,33.5712128710002
1743369720688,17:22:00.688,-1,-1,1119.41391941392,3.03809523809524,33.5712128710002
1743369720707,17:22:00.707,-1,-1,1109.89010989011,3.03663003663004,33.5712128710002
1743369720727,17:22:00.727,-1,-1,1104.0293040293,3.03663003663004,33.5712128710002
1743369720746,17:22:00.746,-1,-1,1072.52747252747,3.03516483516484,33.5712128710002
1743369720766,17:22:00.766,-1,-1,1031.50183150183,3.03516483516484,33.5712128710002
1743369720785,17:22:00.785,-1,-1,1010.98901098901,3.03516483516484,33.5712128710002
1743369720805,17:22:00.805,-1,-1,999.267399267399,3.03516483516484,33.5712128710002
1743369720824,17:22:00.824,-1,-1,987.545787545787,3.03369963369963,33.5712128710002
1743369720844,17:22:00.844,-1,-1,983.882783882784,3.03369963369963,33.5712128710002
1743369720863,17:22:00.863,-1,-1,995.604395604396,3.03223443223443,33.5712128710002
1743369720883,17:22:00.883,-1,-1,1018.31501831502,3.03223443223443,33.5712128710002
1743369720902,17:22:00.902,-1,-1,1108.42490842491,3.03223443223443,33.5712128710002
1743369720922,17:22:00.922,-1,-1,1293.04029304029,3.03223443223443,33.5712128710002
1743369720941,17:22:00.941,-1,-1,1531.13553113553,3.03076923076923,33.5712128710002
1743369720961,17:22:00.961,-1,-1,1753.11355311355,3.02930402930403,33.5712128710002
1743369720980,17:22:00.980,90,-1,1917.21611721612,3.02930402930403,33.5712128710002
1743369721000,17:22:01.000,90,-1,1997.8021978022,3.02930402930403,33.5712128710002
1743369721019,17:22:01.019,90,-1,2010.98901098901,3.02930402930403,33.5712128710002
1743369721039,17:22:01.039,90,-1,1970.69597069597,3.02930402930403,33.5712128710002
1743369721058,17:22:01.058,90,-1,1911.35531135531,3.02783882783883,33.5712128710002
1743369721078,17:22:01.078,90,-1,1838.82783882784,3.02783882783883,33.5712128710002
1743369721097,17:22:01.097,90,-1,1758.97435897436,3.02637362637363,33.5712128710002
1743369721117,17:22:01.117,90,-1,1662.27106227106,3.02637362637363,33.5712128710002
1743369721136,17:22:01.136,90,-1,1542.85714285714,3.02637362637363,33.5712128710002
1743369721156,17:22:01.156,90,-1,1431.50183150183,3.02490842490843,33.5712128710002
1743369721175,17:22:01.175,90,-1,1351.64835164835,3.02490842490843,33.5712128710002
1743369721195,17:22:01.195,90,-1,1315.75091575092,3.02344322344322,33.5712128710002
1743369721214,17:22:01.214,90,-1,1309.89010989011,3.02197802197802,33.5712128710002
1743369721234,17:22:01.234,90,-1,1312.82051282051,3.02197802197802,33.5712128710002
1743369721253,17:22:01.253,90,-1,1309.15750915751,3.02197802197802,33.5712128710002
1743369721273,17:22:01.273,90,-1,1302.5641025641,3.02197802197802,33.5712128710002
1743369721292,17:22:01.292,90,-1,1295.2380952381,3.02051282051282,33.5712128710002
1743369721312,17:22:01.312,90,-1,1276.19047619048,3.02051282051282,33.5712128710002
1743369721331,17:22:01.331,90,-1,1255.67765567766,3.01904761904762,33.5712128710002
1743369721351,17:22:01.351,90,-1,1229.30402930403,3.01904761904762,33.5712128710002
1743369721370,17:22:01.370,90,-1,1194.13919413919,3.01904761904762,33.5712128710002
1743369721390,17:22:01.390,90,-1,1159.70695970696,3.01904761904762,33.5712128710002
1743369721409,17:22:01.409,90,-1,1115.75091575092,3.01758241758242,33.5712128710002
1743369721429,17:22:01.429,90,-1,1079.12087912088,3.01611721611722,33.5712128710002
1743369721448,17:22:01.448,90,-1,1049.08424908425,3.01611721611722,33.5712128710002
1743369721468,17:22:01.468,90,-1,1038.09523809524,3.01611721611722,33.5712128710002
1743369721487,17:22:01.487,90,-1,1019.04761904762,3.01465201465201,33.5712128710002
1743369721507,17:22:01.507,90,-1,1012.45421245421,3.01465201465201,33.5712128710002
1743369721526,17:22:01.526,90,-1,1005.12820512821,3.01465201465201,33.5712128710002
1743369721546,17:22:01.546,90,-1,1007.32600732601,3.01318681318681,33.5712128710002
1743369721565,17:22:01.565,90,-1,1043.22344322344,3.01318681318681,33.5712128710002
1743369721585,17:22:01.585,90,-1,1156.04395604396,3.01318681318681,33.5712128710002
1743369721604,17:22:01.604,90,-1,1353.11355311355,3.01172161172161,33.5712128710002
1743369721624,17:22:01.624,90,-1,1595.6043956044,3.01172161172161,33.5712128710002
1743369721643,17:22:01.643,90,-1,1820.51282051282,3.01025641025641,33.5712128710002
1743369721663,17:22:01.663,90,-1,1964.83516483516,3.01025641025641,33.5712128710002
1743369721682,17:22:01.682,90,-1,2021.24542124542,3.01025641025641,33.5712128710002
1743369721702,17:22:01.702,90,-1,2017.58241758242,3.00879120879121,33.5712128710002
1743369721721,17:22:01.721,90,-1,1985.34798534799,3.00879120879121,33.5712128710002
1743369721741,17:22:01.741,90,-1,1915.75091575092,3.00879120879121,33.5712128710002
1743369721760,17:22:01.760,90,-1,1837.36263736264,3.00879120879121,33.5712128710002
1743369721780,17:22:01.780,85,-1,1750.91575091575,3.00879120879121,33.5712128710002
1743369721799,17:22:01.799,85,-1,1659.34065934066,3.00879120879121,33.5712128710002
1743369721819,17:22:01.819,85,-1,1535.53113553114,3.00732600732601,33.5712128710002
1743369721838,17:22:01.838,85,-1,1431.50183150183,3.00732600732601,33.5712128710002
1743369721858,17:22:01.858,85,-1,1359.70695970696,3.00586080586081,33.5712128710002
1743369721877,17:22:01.877,85,-1,1320.87912087912,3.00586080586081,33.5712128710002
1743369721897,17:22:01.897,85,-1,1302.5641025641,3.00586080586081,33.5712128710002
1743369721916,17:22:01.916,85,-1,1300.3663003663,3.0043956043956,33.5712128710002
1743369721936,17:22:01.936,85,-1,1311.35531135531,3.0043956043956,33.5712128710002
1743369721955,17:22:01.955,85,-1,1311.35531135531,3.0043956043956,33.5712128710002
1743369721975,17:22:01.975,85,-1,1301.8315018315,3.0029304029304,33.5712128710002
1743369721994,17:22:01.994,85,-1,1285.71428571429,3.0014652014652,33.5712128710002
1743369722014,17:22:02.014,85,-1,1259.34065934066,3.0014652014652,33.5712128710002
1743369722033,17:22:02.033,85,-1,1225.64102564103,3.0014652014652,33.5712128710002
1743369722053,17:22:02.053,85,-1,1190.47619047619,3,33.5712128710002
1743369722072,17:22:02.072,85,-1,1160.43956043956,3,33.5712128710002
1743369722092,17:22:02.092,85,-1,1131.13553113553,3,33.5712128710002
1743369722111,17:22:02.111,85,-1,1097.4358974359,2.9985347985348,33.5712128710002
1743369722131,17:22:02.131,85,-1,1066.66666666667,2.9970695970696,33.5712128710002
1743369722150,17:22:02.150,85,-1,1047.61904761905,2.9970695970696,33.5712128710002
1743369722170,17:22:02.170,85,-1,1032.96703296703,2.9956043956044,33.5712128710002
1743369722189,17:22:02.189,85,-1,1026.37362637363,2.99413919413919,33.5712128710002
1743369722209,17:22:02.209,85,-1,1014.65201465201,2.99120879120879,33.5712128710002
1743369722228,17:22:02.228,85,-1,1005.12820512821,2.98974358974359,33.5712128710002
1743369722248,17:22:02.248,85,-1,993.406593406593,2.98681318681319,33.5712128710002
1743369722267,17:22:02.267,85,-1,991.208791208791,2.98241758241758,33.5712128710002
1743369722287,17:22:02.287,85,-1,1043.95604395604,2.97802197802198,33.5712128710002
1743369722306,17:22:02.306,85,-1,1192.67399267399,2.97069597069597,33.5712128710002
1743369722326,17:22:02.326,85,-1,1429.30402930403,2.96190476190476,33.5712128710002
1743369722345,17:22:02.345,85,-1,1693.04029304029,2.95311355311355,33.5712128710002
1743369722365,17:22:02.365,85,-1,1920.87912087912,2.94432234432234,33.5712128710002
1743369722384,17:22:02.384,85,-1,2057.87545787546,2.92673992673993,33.5712128710002
1743369722404,17:22:02.404,85,-1,2109.15750915751,2.91501831501831,33.5712128710002
1743369722423,17:22:02.423,85,-1,2093.04029304029,2.8989010989011,33.5712128710002
1743369722443,17:22:02.443,85,-1,2041.75824175824,2.88131868131868,33.5712128710002
1743369722462,17:22:02.462,85,-1,1953.11355311355,2.85934065934066,33.5712128710002
1743369722482,17:22:02.482,85,-1,1849.81684981685,2.82857142857143,33.5712128710002
1743369722501,17:22:02.501,85,-1,1737.72893772894,2.7992673992674,33.5712128710002
1743369722521,17:22:02.521,85,-1,1625.64102564103,2.77435897435897,33.5712128710002
1743369722540,17:22:02.540,85,-1,1495.2380952381,2.74945054945055,33.5712128710002
1743369722560,17:22:02.560,85,-1,1378.75457875458,2.72307692307692,33.5812191995792
1743369722580,17:22:02.579,85,-1,1323.80952380952,2.68644688644689,33.5812191995792
1743369722599,17:22:02.599,85,-1,1314.28571428571,2.63516483516484,33.5812191995792
1743369722619,17:22:02.618,75,-1,1327.47252747253,2.59120879120879,33.5812191995792
1743369722638,17:22:02.638,75,-1,1334.06593406593,2.55604395604396,33.5812191995792
1743369722658,17:22:02.657,75,-1,1330.40293040293,2.51648351648352,33.5812191995792
1743369722677,17:22:02.677,75,-1,1328.93772893773,2.46959706959707,33.5812191995792
1743369722697,17:22:02.696,75,-1,1323.07692307692,2.42417582417582,33.5812191995792
1743369722716,17:22:02.716,75,-1,1304.0293040293,2.37582417582418,33.5812191995792
1743369722736,17:22:02.736,75,-1,1268.13186813187,2.32893772893773,33.5812191995792
1743369722755,17:22:02.755,75,-1,1239.56043956044,2.29230769230769,33.5812191995792
1743369722775,17:22:02.775,75,-1,1188.27838827839,2.26007326007326,33.5812191995792
1743369722794,17:22:02.794,75,-1,1147.25274725275,2.23223443223443,33.5812191995792
1743369722814,17:22:02.814,75,-1,1117.94871794872,2.21465201465201,33.5812191995792
1743369722833,17:22:02.833,75,-1,1092.30769230769,2.19560439560439,33.5812191995792
1743369722853,17:22:02.853,75,-1,1058.60805860806,2.18095238095238,33.5812191995792
1743369722872,17:22:02.872,75,-1,1041.02564102564,2.16483516483516,33.5812191995792
1743369722892,17:22:02.892,75,-1,1033.69963369963,2.15164835164835,33.5812191995792
1743369722911,17:22:02.911,75,-1,1041.75824175824,2.14139194139194,33.5812191995792
1743369722931,17:22:02.931,75,-1,1046.88644688645,2.13260073260073,33.5812191995792
1743369722950,17:22:02.950,75,-1,1039.56043956044,2.12673992673993,33.5812191995792
1743369722970,17:22:02.970,75,-1,1030.03663003663,2.12234432234432,33.5812191995792
1743369722989,17:22:02.989,75,-1,1030.76923076923,2.12087912087912,33.5812191995792
1743369723009,17:22:03.009,75,-1,1025.64102564103,2.11794871794872,33.5812191995792
1743369723028,17:22:03.028,75,-1,1014.65201465201,2.11501831501831,33.5812191995792
1743369723048,17:22:03.048,75,-1,1048.35164835165,2.11208791208791,33.5812191995792
1743369723067,17:22:03.067,75,-1,1197.0695970696,2.10622710622711,33.5812191995792
1743369723087,17:22:03.087,75,-1,1453.47985347985,2.1032967032967,33.5812191995792
1743369723106,17:22:03.106,75,-1,1726.00732600733,2.1003663003663,33.5812191995792
1743369723126,17:22:03.126,75,-1,1935.53113553114,2.1003663003663,33.5812191995792
1743369723145,17:22:03.145,75,-1,2052.74725274725,2.0989010989011,33.5812191995792
1743369723165,17:22:03.165,75,-1,2087.17948717949,2.09304029304029,33.5812191995792
1743369723184,17:22:03.184,75,-1,2055.67765567766,2.08864468864469,33.5812191995792
1743369723204,17:22:03.204,75,-1,1974.35897435897,2.08424908424908,33.5812191995792
1743369723223,17:22:03.223,75,-1,1879.85347985348,2.08278388278388,33.5812191995792
1743369723243,17:22:03.243,75,-1,1792.67399267399,2.08424908424908,33.5812191995792
1743369723262,17:22:03.262,75,-1,1720.14652014652,2.07692307692308,33.5812191995792
1743369723282,17:22:03.282,75,-1,1621.97802197802,2.07106227106227,33.5812191995792
1743369723301,17:22:03.301,75,-1,1508.42490842491,2.06520146520146,33.5812191995792
1743369723321,17:22:03.321,75,-1,1410.25641025641,2.05934065934066,33.5812191995792
1743369723340,17:22:03.340,75,-1,1340.65934065934,2.05641025641026,33.5812191995792
1743369723360,17:22:03.360,75,-1,1323.07692307692,2.05201465201465,33.5812191995792
1743369723379,17:22:03.379,75,-1,1315.01831501831,2.04908424908425,33.5812191995792
1743369723399,17:22:03.399,75,-1,1320.87912087912,2.04615384615385,33.5812191995792
1743369723418,17:22:03.418,75,-1,1338.46153846154,2.04175824175824,33.5812191995792
1743369723438,17:22:03.438,75,-1,1356.04395604396,2.03882783882784,33.5812191995792
1743369723457,17:22:03.457,72,-1,1342.85714285714,2.03882783882784,33.5812191995792
1743369723477,17:22:03.477,72,-1,1311.35531135531,2.03443223443223,33.5812191995792
1743369723496,17:22:03.496,72,-1,1284.98168498168,2.03589743589744,33.5812191995792
1743369723516,17:22:03.516,72,-1,1254.21245421245,2.03589743589744,33.5812191995792
1743369723535,17:22:03.535,72,-1,1205.86080586081,2.03736263736264,33.5812191995792
1743369723555,17:22:03.555,72,-1,1153.84615384615,2.03589743589744,33.5862223551376
1743369723574,17:22:03.574,72,-1,1124.54212454212,2.03589743589744,33.5862223551376
1743369723594,17:22:03.594,72,-1,1122.34432234432,2.03003663003663,33.5862223551376
1743369723613,17:22:03.613,72,-1,1115.75091575092,2.02564102564103,33.5862223551376
1743369723633,17:22:03.633,72,-1,1115.75091575092,2.02271062271062,33.5862223551376
1743369723652,17:22:03.652,72,-1,1118.68131868132,2.02124542124542,33.5862223551376
1743369723672,17:22:03.672,72,-1,1098.1684981685,2.01831501831502,33.5862223551376
1743369723691,17:22:03.691,72,-1,1063.73626373626,2.01538461538462,33.5862223551376
1743369723711,17:22:03.711,72,-1,1069.59706959707,2.01098901098901,33.5862223551376
1743369723730,17:22:03.730,72,-1,1172.89377289377,2.00805860805861,33.5862223551376
1743369723750,17:22:03.750,72,-1,1395.6043956044,2.00659340659341,33.5862223551376
1743369723769,17:22:03.769,72,-1,1670.32967032967,2.00805860805861,33.5862223551376
1743369723789,17:22:03.789,72,-1,1920.14652014652,2.00805860805861,33.5862223551376
1743369723808,17:22:03.808,72,-1,2090.84249084249,2.01245421245421,33.5862223551376
1743369723828,17:22:03.828,72,-1,2171.42857142857,2.01391941391941,33.5862223551376
1743369723847,17:22:03.847,72,-1,2169.96336996337,2.02271062271062,33.5862223551376
1743369723867,17:22:03.867,72,-1,2114.28571428571,2.03003663003663,33.5862223551376
1743369723886,17:22:03.886,72,-1,2039.56043956044,2.02710622710623,33.5862223551376
1743369723906,17:22:03.906,72,-1,1953.84615384615,2.02417582417582,33.5862223551376
1743369723925,17:22:03.925,72,-1,1861.53846153846,2.01831501831502,33.5862223551376
1743369723945,17:22:03.945,72,-1,1769.96336996337,2.01391941391941,33.5862223551376
1743369723964,17:22:03.964,72,-1,1668.86446886447,2.01098901098901,33.5862223551376
1743369723984,17:22:03.984,72,-1,1545.05494505494,2.01098901098901,33.5862223551376
1743369724003,17:22:04.003,72,-1,1453.47985347985,2.01098901098901,33.5862223551376
1743369724023,17:22:04.023,72,-1,1404.3956043956,2.01098901098901,33.5862223551376
1743369724042,17:22:04.042,72,-1,1387.54578754579,2.01391941391941,33.5862223551376
1743369724062,17:22:04.062,72,-1,1380.95238095238,2.01684981684982,33.5862223551376
1743369724081,17:22:04.081,72,-1,1391.20879120879,2.02710622710623,33.5862223551376
1743369724101,17:22:04.101,72,-1,1391.20879120879,2.04029304029304,33.5862223551376
1743369724120,17:22:04.120,72,-1,1386.81318681319,2.04908424908425,33.5862223551376
1743369724140,17:22:04.140,72,-1,1370.69597069597,2.05934065934066,33.5862223551376
1743369724159,17:22:04.159,72,-1,1335.53113553114,2.06813186813187,33.5862223551376
1743369724179,17:22:04.179,72,-1,1293.04029304029,2.08717948717949,33.5862223551376
1743369724198,17:22:04.198,72,-1,1247.61904761905,2.11501831501831,33.5862223551376
1743369724218,17:22:04.218,72,-1,1213.18681318681,2.14139194139194,33.5862223551376
1743369724237,17:22:04.237,72,-1,1191.20879120879,2.16630036630037,33.5862223551376
1743369724257,17:22:04.257,72,-1,1175.82417582418,2.1970695970696,33.5862223551376
1743369724276,17:22:04.276,72,-1,1158.97435897436,2.24395604395604,33.5862223551376
1743369724296,17:22:04.296,72,-1,1131.13553113553,2.33772893772894,33.5862223551376
1743369724315,17:22:04.315,72,-1,1090.10989010989,2.44908424908425,33.5862223551376
1743369724335,17:22:04.335,72,-1,1066.66666666667,2.54432234432234,33.5862223551376
1743369724354,17:22:04.354,72,-1,1048.35164835165,2.63223443223443,33.5862223551376
1743369724374,17:22:04.374,72,-1,1075.45787545788,2.70695970695971,33.5862223551376
1743369724393,17:22:04.393,72,-1,1224.17582417582,2.76703296703297,33.5862223551376
1743369724413,17:22:04.413,72,-1,1477.65567765568,2.82564102564103,33.5862223551376
1743369724432,17:22:04.432,72,-1,1753.11355311355,2.86959706959707,33.5862223551376
1743369724452,17:22:04.452,72,-1,1997.0695970696,2.91941391941392,33.5862223551376
1743369724471,17:22:04.471,72,-1,2155.31135531136,2.97216117216117,33.5862223551376
1743369724491,17:22:04.491,72,-1,2221.24542124542,3.03076923076923,33.5862223551376
1743369724510,17:22:04.510,72,-1,2209.52380952381,3.07765567765568,33.5862223551376
1743369724530,17:22:04.530,72,-1,2164.83516483516,3.12014652014652,33.5862223551376
1743369724549,17:22:04.549,72,-1,2107.69230769231,3.16703296703297,33.596228648792
1743369724569,17:22:04.569,72,-1,2042.49084249084,3.21538461538462,33.596228648792
1743369724588,17:22:04.588,72,-1,1986.81318681319,3.25494505494505,33.596228648792
1743369724608,17:22:04.608,72,-1,1930.40293040293,3.29304029304029,33.596228648792
1743369724627,17:22:04.627,72,-1,1849.08424908425,3.32820512820513,33.596228648792
1743369724647,17:22:04.647,72,-1,1724.54212454212,3.36336996336996,33.596228648792
1743369724666,17:22:04.666,72,-1,1600.7326007326,3.4,33.596228648792
1743369724686,17:22:04.686,72,-1,1519.41391941392,3.43809523809524,33.596228648792
1743369724705,17:22:04.705,72,-1,1464.46886446886,3.47179487179487,33.596228648792
1743369724725,17:22:04.725,72,-1,1447.61904761905,3.4996336996337,33.596228648792
1743369724744,17:22:04.744,72,-1,1447.61904761905,3.52454212454212,33.596228648792
1743369724764,17:22:04.764,72,-1,1449.08424908425,3.54798534798535,33.596228648792
1743369724783,17:22:04.783,72,-1,1427.10622710623,3.56849816849817,33.596228648792
1743369724803,17:22:04.803,72,-1,1389.01098901099,3.58901098901099,33.596228648792
1743369724822,17:22:04.822,72,-1,1347.98534798535,3.61098901098901,33.596228648792
1743369724842,17:22:04.842,72,-1,1295.9706959707,3.63003663003663,33.596228648792
1743369724861,17:22:04.861,72,-1,1241.75824175824,3.64615384615385,33.596228648792
1743369724881,17:22:04.881,72,-1,1197.0695970696,3.66080586080586,33.596228648792
1743369724900,17:22:04.900,72,-1,1151.64835164835,3.67545787545788,33.596228648792
1743369724920,17:22:04.920,72,-1,1126.00732600733,3.69304029304029,33.596228648792
1743369724939,17:22:04.939,77,-1,1098.1684981685,3.70915750915751,33.596228648792
1743369724959,17:22:04.959,77,-1,1078.38827838828,3.72527472527472,33.596228648792
1743369724978,17:22:04.978,77,-1,1071.79487179487,3.73992673992674,33.596228648792
1743369724998,17:22:04.998,77,-1,1076.92307692308,3.75311355311355,33.596228648792
1743369725017,17:22:05.017,77,-1,1072.52747252747,3.77069597069597,33.596228648792
1743369725037,17:22:05.037,77,-1,1064.46886446886,3.78681318681319,33.596228648792
1743369725056,17:22:05.056,77,-1,1072.52747252747,3.8029304029304,33.596228648792
1743369725076,17:22:05.076,77,-1,1079.85347985348,3.81611721611722,33.596228648792
1743369725095,17:22:05.095,77,-1,1065.20146520147,3.83809523809524,33.596228648792
1743369725115,17:22:05.115,77,-1,1067.39926739927,3.84688644688645,33.596228648792
1743369725134,17:22:05.134,77,-1,1161.90476190476,3.85714285714286,33.596228648792
1743369725154,17:22:05.154,77,-1,1391.94139194139,3.86739926739927,33.596228648792
1743369725173,17:22:05.173,77,-1,1697.4358974359,3.87765567765568,33.596228648792
1743369725193,17:22:05.193,77,-1,1990.47619047619,3.88351648351648,33.596228648792
1743369725212,17:22:05.212,77,-1,2216.84981684982,3.88791208791209,33.596228648792
1743369725232,17:22:05.232,77,-1,2339.19413919414,3.88937728937729,33.596228648792
1743369725251,17:22:05.251,77,-1,2373.62637362637,3.89377289377289,33.596228648792
1743369725271,17:22:05.271,77,-1,2371.42857142857,3.89523809523809,33.596228648792
1743369725290,17:22:05.290,77,-1,2336.26373626374,3.8996336996337,33.596228648792
1743369725310,17:22:05.310,77,-1,2289.37728937729,3.8996336996337,33.596228648792
1743369725329,17:22:05.329,77,-1,2239.56043956044,3.8981684981685,33.596228648792
1743369725349,17:22:05.349,77,-1,2178.02197802198,3.89377289377289,33.596228648792
1743369725368,17:22:05.368,77,-1,2095.9706959707,3.9010989010989,33.596228648792
1743369725388,17:22:05.388,77,-1,1980.21978021978,3.90842490842491,33.596228648792
1743369725407,17:22:05.407,77,-1,1835.89743589744,3.91575091575092,33.596228648792
1743369725427,17:22:05.427,77,-1,1681.31868131868,3.92307692307692,33.596228648792
1743369725446,17:22:05.446,77,-1,1582.41758241758,3.93040293040293,33.596228648792
1743369725466,17:22:05.466,77,-1,1531.13553113553,3.93626373626374,33.596228648792
1743369725485,17:22:05.485,77,-1,1493.77289377289,3.94065934065934,33.596228648792
1743369725505,17:22:05.505,77,-1,1465.20146520146,3.94505494505494,33.596228648792
1743369725524,17:22:05.524,77,-1,1452.01465201465,3.94798534798535,33.596228648792
1743369725544,17:22:05.544,77,-1,1417.58241758242,3.94945054945055,33.596228648792
1743369725563,17:22:05.563,77,-1,1369.23076923077,3.94945054945055,33.596228648792
1743369725583,17:22:05.583,77,-1,1315.01831501831,3.94945054945055,33.596228648792
1743369725602,17:22:05.602,77,-1,1242.49084249084,3.94945054945055,33.596228648792
1743369725622,17:22:05.622,85,-1,1199.2673992674,3.94505494505494,33.596228648792
1743369725641,17:22:05.641,85,-1,1170.69597069597,3.94652014652015,33.596228648792
1743369725661,17:22:05.661,85,-1,1137.72893772894,3.94652014652015,33.596228648792
1743369725680,17:22:05.680,85,-1,1107.69230769231,3.94652014652015,33.596228648792
1743369725700,17:22:05.700,85,-1,1076.92307692308,3.94652014652015,33.596228648792
1743369725719,17:22:05.719,85,-1,1060.80586080586,3.94652014652015,33.596228648792
1743369725739,17:22:05.739,85,-1,1049.08424908425,3.94945054945055,33.596228648792
1743369725758,17:22:05.758,85,-1,1027.83882783883,3.96410256410256,33.596228648792
1743369725778,17:22:05.778,85,-1,1005.12820512821,3.98021978021978,33.596228648792
1743369725797,17:22:05.797,85,-1,974.358974358974,3.99487179487179,33.596228648792
1743369725817,17:22:05.817,85,-1,958.974358974359,4.00659340659341,33.596228648792
1743369725836,17:22:05.836,85,-1,961.172161172161,4.01245421245421,33.596228648792
1743369725856,17:22:05.856,85,-1,961.904761904762,4.01684981684982,33.596228648792
1743369725875,17:22:05.875,85,-1,954.578754578755,4.02857142857143,33.596228648792
1743369725895,17:22:05.895,85,-1,964.835164835165,4.03150183150183,33.596228648792
1743369725914,17:22:05.914,85,-1,971.428571428571,4.02857142857143,33.596228648792
1743369725934,17:22:05.934,85,-1,975.824175824176,4.02417582417582,33.596228648792
1743369725953,17:22:05.953,85,-1,973.626373626374,4.01684981684982,33.596228648792
1743369725973,17:22:05.973,85,-1,963.369963369963,4.01098901098901,33.596228648792
1743369725992,17:22:05.992,85,-1,958.974358974359,4.00512820512821,33.596228648792
1743369726012,17:22:06.012,85,-1,1032.96703296703,3.9992673992674,33.596228648792
1743369726031,17:22:06.031,85,-1,1230.03663003663,3.99340659340659,33.596228648792
1743369726051,17:22:06.051,85,-1,1510.62271062271,3.98608058608059,33.596228648792
1743369726070,17:22:06.070,85,-1,1805.12820512821,3.98168498168498,33.596228648792
1743369726090,17:22:06.090,85,-1,2055.67765567766,3.97875457875458,33.596228648792
1743369726109,17:22:06.109,85,-1,2216.84981684982,3.97289377289377,33.596228648792
1743369726129,17:22:06.129,85,-1,2303.2967032967,3.96556776556777,33.596228648792
1743369726148,17:22:06.148,85,-1,2328.93772893773,3.95824175824176,33.596228648792
1743369726168,17:22:06.168,85,-1,2301.8315018315,3.95091575091575,33.596228648792
1743369726187,17:22:06.187,85,-1,2256.41025641026,3.94358974358974,33.596228648792
1743369726207,17:22:06.207,85,-1,2193.40659340659,3.93479853479853,33.596228648792
1743369726226,17:22:06.226,85,-1,2119.41391941392,3.92454212454212,33.596228648792
1743369726246,17:22:06.246,85,-1,2025.64102564103,3.91575091575092,33.596228648792
1743369726265,17:22:06.265,85,-1,1916.48351648352,3.90695970695971,33.596228648792
1743369726285,17:22:06.285,85,-1,1782.41758241758,3.89523809523809,33.596228648792
1743369726304,17:22:06.304,85,-1,1661.53846153846,3.88058608058608,33.596228648792
1743369726324,17:22:06.324,85,-1,1552.38095238095,3.87179487179487,33.596228648792
1743369726343,17:22:06.343,88,-1,1484.24908424908,3.85860805860806,33.596228648792
1743369726363,17:22:06.363,88,-1,1452.74725274725,3.84542124542125,33.596228648792
1743369726382,17:22:06.382,88,-1,1424.17582417582,3.82637362637363,33.596228648792
1743369726402,17:22:06.402,88,-1,1396.336996337,3.82051282051282,33.596228648792
1743369726421,17:22:06.421,88,-1,1364.10256410256,3.8029304029304,33.596228648792
1743369726441,17:22:06.441,88,-1,1341.39194139194,3.77948717948718,33.596228648792
1743369726460,17:22:06.460,88,-1,1295.9706959707,3.75457875457876,33.596228648792
1743369726480,17:22:06.480,88,-1,1253.47985347985,3.72380952380952,33.596228648792
1743369726499,17:22:06.499,88,-1,1210.98901098901,3.69010989010989,33.596228648792
1743369726519,17:22:06.519,88,-1,1170.69597069597,3.62857142857143,33.596228648792
1743369726538,17:22:06.538,88,-1,1136.26373626374,3.54065934065934,33.5862223551376
1743369726558,17:22:06.558,88,-1,1108.42490842491,3.48351648351648,33.5862223551376
1743369726577,17:22:06.577,88,-1,1084.24908424908,3.42051282051282,33.5862223551376
1743369726597,17:22:06.597,88,-1,1050.54945054945,3.35604395604396,33.5862223551376
1743369726616,17:22:06.616,88,-1,1021.24542124542,3.29304029304029,33.5862223551376
1743369726636,17:22:06.636,88,-1,998.534798534798,3.23296703296703,33.5862223551376
1743369726655,17:22:06.655,88,-1,983.882783882784,3.17289377289377,33.5862223551376
1743369726675,17:22:06.675,88,-1,985.347985347985,3.11721611721612,33.5862223551376
1743369726694,17:22:06.694,88,-1,997.069597069597,3.06300366300366,33.5862223551376
1743369726714,17:22:06.714,88,-1,991.941391941392,3.01465201465201,33.5862223551376
1743369726733,17:22:06.733,88,-1,986.813186813187,2.97802197802198,33.5862223551376
1743369726753,17:22:06.753,88,-1,988.278388278388,2.95457875457875,33.5862223551376
1743369726772,17:22:06.772,88,-1,985.347985347985,2.92673992673993,33.5862223551376
1743369726792,17:22:06.792,88,-1,972.893772893773,2.8989010989011,33.5862223551376
1743369726811,17:22:06.811,88,-1,967.765567765568,2.87399267399267,33.5862223551376
1743369726831,17:22:06.831,88,-1,972.161172161172,2.84761904761905,33.5862223551376
1743369726850,17:22:06.850,88,-1,955.311355311355,2.81538461538462,33.5862223551376
1743369726870,17:22:06.870,88,-1,941.391941391941,2.78168498168498,33.5862223551376
1743369726889,17:22:06.889,88,-1,945.787545787546,2.74652014652015,33.5862223551376
1743369726909,17:22:06.909,88,-1,970.695970695971,2.72307692307692,33.5862223551376
1743369726928,17:22:06.928,88,-1,1065.93406593407,2.7025641025641,33.5862223551376
1743369726948,17:22:06.948,88,-1,1279.12087912088,2.68351648351648,33.5862223551376
1743369726967,17:22:06.967,88,-1,1569.96336996337,2.66739926739927,33.5862223551376
1743369726987,17:22:06.987,88,-1,1846.88644688645,2.65128205128205,33.5862223551376
1743369727006,17:22:07.006,88,-1,2046.15384615385,2.63956043956044,33.5862223551376
1743369727026,17:22:07.026,88,-1,2158.24175824176,2.63516483516484,33.5862223551376
1743369727045,17:22:07.045,88,-1,2197.0695970696,2.63663003663004,33.5862223551376
1743369727065,17:22:07.065,88,-1,2174.35897435897,2.64542124542125,33.5862223551376
1743369727084,17:22:07.084,88,-1,2125.27472527472,2.66446886446886,33.5862223551376
1743369727104,17:22:07.104,83,-1,2067.39926739927,2.7010989010989,33.5862223551376
1743369727123,17:22:07.123,83,-1,1983.15018315018,2.76849816849817,33.5862223551376
1743369727143,17:22:07.143,83,-1,1887.91208791209,2.85347985347985,33.5862223551376
1743369727162,17:22:07.162,83,-1,1793.40659340659,2.94725274725275,33.5862223551376
1743369727182,17:22:07.182,83,-1,1684.24908424908,3.02490842490843,33.5862223551376
1743369727201,17:22:07.201,83,-1,1562.63736263736,3.06446886446886,33.5862223551376
1743369727221,17:22:07.221,83,-1,1475.45787545788,3.10549450549451,33.5862223551376
1743369727240,17:22:07.240,83,-1,1428.57142857143,3.14358974358974,33.5862223551376
1743369727260,17:22:07.260,83,-1,1408.79120879121,3.17142857142857,33.5862223551376
1743369727279,17:22:07.279,83,-1,1397.8021978022,3.19194139194139,33.5862223551376
1743369727299,17:22:07.299,83,-1,1378.02197802198,3.20805860805861,33.5862223551376
1743369727318,17:22:07.318,83,-1,1357.50915750916,3.22271062271062,33.5862223551376
1743369727338,17:22:07.338,83,-1,1333.33333333333,3.23589743589744,33.5862223551376
1743369727357,17:22:07.357,83,-1,1299.6336996337,3.24615384615385,33.5862223551376
1743369727377,17:22:07.377,83,-1,1253.47985347985,3.25494505494505,33.5862223551376
1743369727396,17:22:07.396,83,-1,1189.01098901099,3.26080586080586,33.5862223551376
1743369727416,17:22:07.416,83,-1,1145.05494505494,3.26666666666667,33.5862223551376
1743369727435,17:22:07.435,83,-1,1117.21611721612,3.27252747252747,33.5862223551376
1743369727455,17:22:07.455,83,-1,1080.58608058608,3.27692307692308,33.5862223551376
1743369727474,17:22:07.474,83,-1,1038.82783882784,3.27985347985348,33.5862223551376
1743369727494,17:22:07.494,83,-1,1009.52380952381,3.28424908424908,33.5862223551376
1743369727513,17:22:07.513,83,-1,998.534798534798,3.28717948717949,33.5862223551376
1743369727533,17:22:07.533,83,-1,1013.18681318681,3.28864468864469,33.6012317868881
1743369727552,17:22:07.552,83,-1,1024.17582417582,3.28864468864469,33.6012317868881
1743369727572,17:22:07.572,83,-1,1008.05860805861,3.28864468864469,33.6012317868881
1743369727591,17:22:07.591,83,-1,983.882783882784,3.28424908424908,33.6012317868881
1743369727611,17:22:07.611,83,-1,972.161172161172,3.28278388278388,33.6012317868881
1743369727630,17:22:07.630,83,-1,969.96336996337,3.27838827838828,33.6012317868881
1743369727650,17:22:07.650,83,-1,978.754578754579,3.27399267399267,33.6012317868881
1743369727669,17:22:07.669,83,-1,989.010989010989,3.26813186813187,33.6012317868881
1743369727689,17:22:07.689,83,-1,992.673992673993,3.26080586080586,33.6012317868881
1743369727708,17:22:07.708,83,-1,972.893772893773,3.25054945054945,33.6012317868881
1743369727728,17:22:07.728,83,-1,961.904761904762,3.22857142857143,33.6012317868881
1743369727747,17:22:07.747,83,-1,950.18315018315,3.21684981684982,33.6012317868881
1743369727767,17:22:07.767,79,-1,931.868131868132,3.18754578754579,33.6012317868881
1743369727786,17:22:07.786,79,-1,928.937728937729,3.15384615384615,33.6012317868881
1743369727806,17:22:07.806,79,-1,957.509157509157,3.12307692307692,33.6012317868881
1743369727825,17:22:07.825,79,-1,1074.72527472527,3.09523809523809,33.6012317868881
1743369727845,17:22:07.845,79,-1,1284.98168498168,3.06446886446886,33.6012317868881
1743369727864,17:22:07.864,79,-1,1545.05494505494,3.03663003663004,33.6012317868881
1743369727884,17:22:07.884,79,-1,1789.01098901099,3.01172161172161,33.6012317868881
1743369727903,17:22:07.903,79,-1,1964.83516483516,2.99120879120879,33.6012317868881
1743369727923,17:22:07.923,79,-1,2060.80586080586,2.97655677655678,33.6012317868881
1743369727942,17:22:07.942,79,-1,2083.51648351648,2.95897435897436,33.6012317868881
1743369727962,17:22:07.962,79,-1,2052.01465201465,2.94139194139194,33.6012317868881
1743369727981,17:22:07.981,79,-1,1994.13919413919,2.91941391941392,33.6012317868881
1743369728001,17:22:08.001,79,-1,1922.34432234432,2.90622710622711,33.6012317868881
1743369728020,17:22:08.020,79,-1,1845.42124542125,2.89450549450549,33.6012317868881
1743369728040,17:22:08.040,79,-1,1768.49816849817,2.88424908424908,33.6012317868881
1743369728059,17:22:08.059,79,-1,1677.65567765568,2.87545787545788,33.6012317868881
1743369728079,17:22:08.079,79,-1,1570.69597069597,2.86520146520146,33.6012317868881
1743369728098,17:22:08.098,79,-1,1468.86446886447,2.85787545787546,33.6012317868881
1743369728118,17:22:08.118,79,-1,1387.54578754579,2.85347985347985,33.6012317868881
1743369728137,17:22:08.137,79,-1,1322.34432234432,2.84908424908425,33.6012317868881
1743369728157,17:22:08.157,79,-1,1285.71428571429,2.84615384615385,33.6012317868881
1743369728176,17:22:08.176,79,-1,1283.51648351648,2.84175824175824,33.6012317868881
1743369728196,17:22:08.196,79,-1,1287.17948717949,2.83882783882784,33.6012317868881
1743369728215,17:22:08.215,79,-1,1274.72527472527,2.83589743589744,33.6012317868881
1743369728235,17:22:08.235,79,-1,1257.14285714286,2.83296703296703,33.6012317868881
1743369728254,17:22:08.254,79,-1,1243.22344322344,2.83003663003663,33.6012317868881
1743369728274,17:22:08.274,79,-1,1222.71062271062,2.82710622710623,33.6012317868881
1743369728293,17:22:08.293,79,-1,1189.74358974359,2.82417582417582,33.6012317868881
1743369728313,17:22:08.313,79,-1,1179.48717948718,2.82271062271062,33.6012317868881
1743369728332,17:22:08.332,79,-1,1145.05494505494,2.81978021978022,33.6012317868881
1743369728352,17:22:08.352,79,-1,1104.0293040293,2.81684981684982,33.6012317868881
1743369728371,17:22:08.371,79,-1,1075.45787545788,2.81391941391941,33.6012317868881
1743369728391,17:22:08.391,79,-1,1045.42124542125,2.80952380952381,33.6012317868881
1743369728410,17:22:08.410,79,-1,1024.90842490842,2.80805860805861,33.6012317868881
1743369728430,17:22:08.430,79,-1,1006.59340659341,2.80659340659341,33.6012317868881
1743369728449,17:22:08.449,90,-1,991.208791208791,2.80512820512821,33.6012317868881
1743369728469,17:22:08.469,90,-1,978.021978021978,2.80512820512821,33.6012317868881
1743369728488,17:22:08.488,90,-1,970.695970695971,2.80659340659341,33.6012317868881
1743369728508,17:22:08.508,90,-1,976.556776556777,2.80952380952381,33.6012317868881
1743369728527,17:22:08.527,90,-1,980.952380952381,2.81684981684982,33.6112380456179
1743369728547,17:22:08.547,90,-1,975.824175824176,2.83589743589744,33.6112380456179
1743369728566,17:22:08.566,90,-1,966.300366300366,2.88278388278388,33.6112380456179
1743369728586,17:22:08.586,90,-1,956.043956043956,2.92527472527473,33.6112380456179
1743369728605,17:22:08.605,90,-1,953.846153846154,2.96336996336996,33.6112380456179
1743369728625,17:22:08.625,90,-1,959.70695970696,3.00586080586081,33.6112380456179
1743369728644,17:22:08.644,90,-1,964.835164835165,3.03369963369963,33.6112380456179
1743369728664,17:22:08.664,90,-1,962.637362637363,3.05128205128205,33.6112380456179
1743369728683,17:22:08.683,90,-1,958.241758241758,3.06007326007326,33.6112380456179
1743369728703,17:22:08.703,90,-1,965.567765567765,3.06739926739927,33.6112380456179
1743369728722,17:22:08.722,90,-1,1034.43223443223,3.07326007326007,33.6112380456179
1743369728742,17:22:08.742,90,-1,1197.0695970696,3.07912087912088,33.6112380456179
1743369728761,17:22:08.761,90,-1,1422.71062271062,3.07179487179487,33.6112380456179
1743369728781,17:22:08.781,90,-1,1664.46886446886,3.05860805860806,33.6112380456179
1743369728800,17:22:08.800,90,-1,1869.59706959707,3.04688644688645,33.6112380456179
1743369728820,17:22:08.820,90,-1,2000,3.03809523809524,33.6112380456179
1743369728839,17:22:08.839,90,-1,2054.21245421245,3.0014652014652,33.6112380456179
1743369728859,17:22:08.859,90,-1,2044.68864468864,2.95897435897436,33.6112380456179
1743369728878,17:22:08.878,90,-1,1982.41758241758,2.90769230769231,33.6112380456179
1743369728898,17:22:08.898,90,-1,1904.0293040293,2.85494505494506,33.6112380456179
1743369728917,17:22:08.917,90,-1,1824.90842490842,2.79194139194139,33.6112380456179
1743369728937,17:22:08.937,90,-1,1752.38095238095,2.74945054945055,33.6112380456179
1743369728956,17:22:08.956,90,-1,1679.85347985348,2.70842490842491,33.6112380456179
1743369728976,17:22:08.976,90,-1,1590.47619047619,2.67032967032967,33.6112380456179
1743369728995,17:22:08.995,90,-1,1483.51648351648,2.63516483516484,33.6112380456179
1743369729015,17:22:09.015,90,-1,1391.20879120879,2.6043956043956,33.6112380456179
1743369729034,17:22:09.034,90,-1,1334.79853479853,2.58095238095238,33.6112380456179
1743369729054,17:22:09.054,90,-1,1312.08791208791,2.56336996336996,33.6112380456179
1743369729073,17:22:09.073,90,-1,1313.55311355311,2.54725274725275,33.6112380456179
1743369729093,17:22:09.093,90,-1,1326.00732600733,2.53406593406593,33.6112380456179
1743369729112,17:22:09.112,90,-1,1324.54212454212,2.51794871794872,33.6112380456179
1743369729132,17:22:09.132,90,-1,1306.95970695971,2.50622710622711,33.6112380456179
1743369729151,17:22:09.151,90,-1,1279.85347985348,2.4974358974359,33.6112380456179
1743369729171,17:22:09.171,90,-1,1252.74725274725,2.48717948717949,33.6112380456179
1743369729190,17:22:09.190,88,-1,1221.24542124542,2.47399267399267,33.6112380456179
1743369729210,17:22:09.210,88,-1,1186.81318681319,2.46520146520146,33.6112380456179
1743369729229,17:22:09.229,88,-1,1161.17216117216,2.45787545787546,33.6112380456179
1743369729249,17:22:09.249,88,-1,1144.32234432234,2.45054945054945,33.6112380456179
1743369729268,17:22:09.268,88,-1,1127.47252747253,2.44029304029304,33.6112380456179
1743369729288,17:22:09.288,88,-1,1108.42490842491,2.43003663003663,33.6112380456179
1743369729307,17:22:09.307,88,-1,1089.37728937729,2.42124542124542,33.6112380456179
1743369729327,17:22:09.327,88,-1,1070.32967032967,2.40659340659341,33.6112380456179
1743369729346,17:22:09.346,88,-1,1064.46886446886,2.39340659340659,33.6112380456179
1743369729366,17:22:09.366,88,-1,1066.66666666667,2.37728937728938,33.6112380456179
1743369729385,17:22:09.385,88,-1,1070.32967032967,2.36556776556777,33.6112380456179
1743369729405,17:22:09.405,88,-1,1081.31868131868,2.34945054945055,33.6112380456179
1743369729424,17:22:09.424,88,-1,1076.19047619048,2.33772893772894,33.6112380456179
1743369729444,17:22:09.444,88,-1,1065.20146520147,2.32747252747253,33.6112380456179
1743369729463,17:22:09.463,88,-1,1052.74725274725,2.32014652014652,33.6112380456179
1743369729483,17:22:09.483,88,-1,1046.88644688645,2.31721611721612,33.6112380456179
1743369729502,17:22:09.502,88,-1,1036.63003663004,2.32307692307692,33.6112380456179
1743369729522,17:22:09.522,88,-1,1027.83882783883,2.34798534798535,33.6162411662517
1743369729541,17:22:09.541,88,-1,1022.71062271062,2.39487179487179,33.6162411662517
1743369729561,17:22:09.561,88,-1,1011.72161172161,2.44029304029304,33.6162411662517
1743369729580,17:22:09.580,88,-1,1010.98901098901,2.48424908424908,33.6162411662517
1743369729600,17:22:09.600,88,-1,1065.20146520147,2.52673992673993,33.6162411662517
1743369729619,17:22:09.619,88,-1,1192.67399267399,2.57216117216117,33.6162411662517
1743369729639,17:22:09.639,88,-1,1401.4652014652,2.61318681318681,33.6162411662517
1743369729658,17:22:09.658,88,-1,1656.41025641026,2.65421245421245,33.6162411662517
1743369729678,17:22:09.678,88,-1,1889.37728937729,2.67765567765568,33.6162411662517
1743369729697,17:22:09.697,88,-1,2050.54945054945,2.7010989010989,33.6162411662517
1743369729717,17:22:09.717,88,-1,2124.54212454212,2.71428571428571,33.6162411662517
1743369729736,17:22:09.736,88,-1,2113.55311355311,2.72747252747253,33.6162411662517
1743369729756,17:22:09.756,88,-1,2051.28205128205,2.73919413919414,33.6162411662517
1743369729775,17:22:09.775,88,-1,1967.03296703297,2.75091575091575,33.6162411662517
1743369729795,17:22:09.795,88,-1,1873.26007326007,2.76410256410256,33.6162411662517
1743369729814,17:22:09.814,88,-1,1786.81318681319,2.77142857142857,33.6162411662517
1743369729834,17:22:09.834,88,-1,1713.55311355311,2.77875457875458,33.6162411662517
1743369729853,17:22:09.853,88,-1,1624.90842490842,2.78901098901099,33.6162411662517
1743369729873,17:22:09.873,88,-1,1532.60073260073,2.796336996337,33.6162411662517
1743369729892,17:22:09.892,88,-1,1456.41025641026,2.8007326007326,33.6162411662517
1743369729912,17:22:09.912,88,-1,1415.38461538462,2.8007326007326,33.6162411662517
1743369729931,17:22:09.931,88,-1,1386.81318681319,2.78901098901099,33.6162411662517
1743369729951,17:22:09.951,88,-1,1372.89377289377,2.79047619047619,33.6162411662517
1743369729970,17:22:09.970,88,-1,1382.41758241758,2.79194139194139,33.6162411662517
1743369729990,17:22:09.990,88,-1,1369.96336996337,2.78754578754579,33.6162411662517
1743369730009,17:22:10.009,88,-1,1340.65934065934,2.76996336996337,33.6162411662517
1743369730029,17:22:10.029,88,-1,1309.15750915751,2.75091575091575,33.6162411662517
1743369730048,17:22:10.048,88,-1,1276.92307692308,2.72454212454212,33.6162411662517
1743369730068,17:22:10.068,88,-1,1248.35164835165,2.70695970695971,33.6162411662517
1743369730087,17:22:10.087,81,-1,1216.84981684982,2.69230769230769,33.6162411662517
1743369730107,17:22:10.107,81,-1,1175.82417582418,2.68351648351648,33.6162411662517
1743369730126,17:22:10.126,81,-1,1131.86813186813,2.67472527472527,33.6162411662517
1743369730146,17:22:10.146,81,-1,1105.49450549451,2.66886446886447,33.6162411662517
1743369730165,17:22:10.165,81,-1,1091.57509157509,2.66300366300366,33.6162411662517
1743369730185,17:22:10.185,81,-1,1083.51648351648,2.65714285714286,33.6162411662517
1743369730204,17:22:10.204,81,-1,1070.32967032967,2.65128205128205,33.6162411662517
1743369730224,17:22:10.224,81,-1,1054.94505494505,2.64688644688645,33.6162411662517
1743369730243,17:22:10.243,81,-1,1056.41025641026,2.63809523809524,33.6162411662517
1743369730263,17:22:10.263,81,-1,1057.14285714286,2.63223443223443,33.6162411662517
1743369730282,17:22:10.282,81,-1,1064.46886446886,2.62197802197802,33.6162411662517
1743369730302,17:22:10.302,81,-1,1064.46886446886,2.61318681318681,33.6162411662517
1743369730321,17:22:10.321,81,-1,1053.47985347985,2.6043956043956,33.6162411662517
1743369730341,17:22:10.341,81,-1,1047.61904761905,2.6014652014652,33.6162411662517
1743369730360,17:22:10.360,81,-1,1044.68864468864,2.5956043956044,33.6162411662517
1743369730380,17:22:10.380,81,-1,1035.16483516484,2.59120879120879,33.6162411662517
1743369730399,17:22:10.399,81,-1,1030.76923076923,2.58241758241758,33.6162411662517
1743369730419,17:22:10.419,81,-1,1034.43223443223,2.56923076923077,33.6162411662517
1743369730438,17:22:10.438,81,-1,1037.36263736264,2.55311355311355,33.6162411662517
1743369730458,17:22:10.458,81,-1,1081.31868131868,2.53406593406593,33.6162411662517
1743369730477,17:22:10.477,81,-1,1198.5347985348,2.51794871794872,33.6162411662517
1743369730497,17:22:10.497,81,-1,1389.74358974359,2.5018315018315,33.6162411662517
1743369730516,17:22:10.516,81,-1,1614.65201465201,2.48424908424908,33.626247390057
1743369730536,17:22:10.536,81,-1,1821.24542124542,2.46080586080586,33.626247390057
1743369730555,17:22:10.555,81,-1,1955.31135531136,2.43296703296703,33.626247390057
1743369730575,17:22:10.575,81,-1,2009.52380952381,2.40805860805861,33.626247390057
1743369730594,17:22:10.594,81,-1,1998.5347985348,2.39047619047619,33.626247390057
1743369730614,17:22:10.614,81,-1,1939.92673992674,2.37435897435897,33.626247390057
1743369730633,17:22:10.633,81,-1,1872.52747252747,2.35531135531135,33.626247390057
1743369730653,17:22:10.653,81,-1,1791.20879120879,2.33626373626374,33.626247390057
1743369730672,17:22:10.672,81,-1,1709.89010989011,2.32014652014652,33.626247390057
1743369730692,17:22:10.692,81,-1,1624.17582417582,2.3025641025641,33.626247390057
1743369730711,17:22:10.711,81,-1,1533.33333333333,2.28644688644689,33.626247390057
1743369730731,17:22:10.731,81,-1,1452.01465201465,2.27179487179487,33.626247390057
1743369730750,17:22:10.750,81,-1,1395.6043956044,2.25860805860806,33.626247390057
1743369730770,17:22:10.770,81,-1,1354.57875457875,2.24542124542124,33.626247390057
1743369730789,17:22:10.789,81,-1,1350.91575091575,2.23369963369963,33.626247390057
1743369730809,17:22:10.809,81,-1,1368.49816849817,2.22197802197802,33.626247390057
1743369730828,17:22:10.828,81,-1,1383.15018315018,2.21172161172161,33.626247390057
1743369730848,17:22:10.848,81,-1,1365.56776556777,2.21172161172161,33.626247390057
1743369730867,17:22:10.867,81,-1,1363.36996336996,2.22051282051282,33.626247390057
1743369730887,17:22:10.887,81,-1,1356.77655677656,2.23809523809524,33.626247390057
1743369730906,17:22:10.906,81,-1,1333.33333333333,2.24835164835165,33.626247390057
1743369730926,17:22:10.926,81,-1,1301.0989010989,2.24981684981685,33.626247390057
1743369730945,17:22:10.945,81,-1,1263.73626373626,2.27912087912088,33.626247390057
1743369730965,17:22:10.965,81,-1,1226.37362637363,2.31868131868132,33.626247390057
1743369730984,17:22:10.984,67,-1,1195.6043956044,2.36703296703297,33.626247390057
1743369731004,17:22:11.004,67,-1,1164.83516483516,2.40512820512821,33.626247390057
1743369731023,17:22:11.023,67,-1,1134.79853479853,2.43589743589744,33.626247390057
1743369731043,17:22:11.043,67,-1,1116.48351648352,2.45347985347985,33.626247390057
1743369731062,17:22:11.062,67,-1,1116.48351648352,2.46373626373626,33.626247390057
1743369731082,17:22:11.082,67,-1,1117.94871794872,2.47106227106227,33.626247390057
1743369731101,17:22:11.101,67,-1,1123.80952380952,2.47692307692308,33.626247390057
1743369731121,17:22:11.121,67,-1,1118.68131868132,2.48278388278388,33.626247390057
1743369731140,17:22:11.140,67,-1,1118.68131868132,2.48864468864469,33.626247390057
1743369731160,17:22:11.160,67,-1,1112.08791208791,2.49304029304029,33.626247390057
1743369731179,17:22:11.179,67,-1,1101.0989010989,2.4974358974359,33.626247390057
1743369731199,17:22:11.199,67,-1,1090.10989010989,2.5003663003663,33.626247390057
1743369731218,17:22:11.218,67,-1,1103.2967032967,2.50915750915751,33.626247390057
1743369731238,17:22:11.238,67,-1,1199.2673992674,2.51794871794872,33.626247390057
1743369731257,17:22:11.257,67,-1,1406.59340659341,2.52820512820513,33.626247390057
1743369731277,17:22:11.277,67,-1,1659.34065934066,2.54578754578755,33.626247390057
1743369731296,17:22:11.296,67,-1,1874.72527472527,2.56043956043956,33.626247390057
1743369731316,17:22:11.316,67,-1,2025.64102564103,2.57802197802198,33.626247390057
1743369731335,17:22:11.335,67,-1,2087.91208791209,2.5985347985348,33.626247390057
1743369731355,17:22:11.355,67,-1,2082.78388278388,2.61025641025641,33.626247390057
1743369731374,17:22:11.374,67,-1,2031.50183150183,2.61758241758242,33.626247390057
1743369731394,17:22:11.394,67,-1,1962.63736263736,2.62490842490842,33.626247390057
1743369731413,17:22:11.413,67,-1,1893.04029304029,2.62783882783883,33.626247390057
1743369731433,17:22:11.433,67,-1,1824.90842490842,2.63516483516484,33.626247390057
1743369731452,17:22:11.452,67,-1,1753.11355311355,2.64249084249084,33.626247390057
1743369731472,17:22:11.472,67,-1,1649.08424908425,2.64395604395604,33.626247390057
1743369731491,17:22:11.491,67,-1,1536.99633699634,2.64249084249084,33.626247390057
1743369731511,17:22:11.511,67,-1,1451.28205128205,2.64395604395604,33.6212442810647
1743369731530,17:22:11.530,67,-1,1402.9304029304,2.64835164835165,33.6212442810647
1743369731550,17:22:11.550,67,-1,1391.94139194139,2.64981684981685,33.6212442810647
1743369731569,17:22:11.569,67,-1,1395.6043956044,2.64981684981685,33.6212442810647
1743369731589,17:22:11.589,67,-1,1402.1978021978,2.65421245421245,33.6212442810647
1743369731608,17:22:11.608,67,-1,1408.79120879121,2.65567765567766,33.6212442810647
1743369731628,17:22:11.628,67,-1,1400,2.64981684981685,33.6212442810647
1743369731647,17:22:11.647,67,-1,1386.81318681319,2.63956043956044,33.6212442810647
1743369731667,17:22:11.667,67,-1,1368.49816849817,2.62637362637363,33.6212442810647
1743369731686,17:22:11.686,67,-1,1345.05494505494,2.61465201465201,33.6212442810647
1743369731706,17:22:11.706,67,-1,1311.35531135531,2.6043956043956,33.6212442810647
1743369731725,17:22:11.725,67,-1,1265.20146520147,2.58095238095238,33.6212442810647
1743369731745,17:22:11.745,67,-1,1221.24542124542,2.53406593406593,33.6212442810647
1743369731764,17:22:11.764,67,-1,1186.81318681319,2.47692307692308,33.6212442810647
1743369731784,17:22:11.784,67,-1,1156.04395604396,2.40805860805861,33.6212442810647
1743369731803,17:22:11.803,67,-1,1126.73992673993,2.35531135531135,33.6212442810647
1743369731823,17:22:11.823,67,-1,1112.08791208791,2.3040293040293,33.6212442810647
1743369731842,17:22:11.842,67,-1,1127.47252747253,2.26153846153846,33.6212442810647
1743369731862,17:22:11.862,67,-1,1142.85714285714,2.21904761904762,33.6212442810647
1743369731881,17:22:11.881,67,-1,1153.84615384615,2.18388278388278,33.6212442810647
1743369731901,17:22:11.901,67,-1,1134.79853479853,2.16630036630037,33.6212442810647
1743369731920,17:22:11.920,67,-1,1104.0293040293,2.14871794871795,33.6212442810647
1743369731940,17:22:11.940,67,-1,1084.98168498169,2.13553113553114,33.6212442810647
1743369731959,17:22:11.959,67,-1,1085.71428571429,2.12380952380952,33.6212442810647
1743369731979,17:22:11.979,67,-1,1120.14652014652,2.11794871794872,33.6212442810647
1743369731998,17:22:11.998,67,-1,1259.34065934066,2.10622710622711,33.6212442810647
1743369732018,17:22:12.018,67,-1,1498.9010989011,2.09157509157509,33.6212442810647
1743369732037,17:22:12.037,67,-1,1769.96336996337,2.07985347985348,33.6212442810647
1743369732057,17:22:12.057,67,-1,1985.34798534799,2.07399267399267,33.6212442810647
1743369732076,17:22:12.076,67,-1,2123.07692307692,2.06373626373626,33.6212442810647
1743369732096,17:22:12.096,67,-1,2180.95238095238,2.05347985347985,33.6212442810647
1743369732115,17:22:12.115,67,-1,2170.69597069597,2.04175824175824,33.6212442810647
1743369732135,17:22:12.135,67,-1,2109.15750915751,2.03443223443223,33.6212442810647
1743369732154,17:22:12.154,67,-1,2040.29304029304,2.03150183150183,33.6212442810647
1743369732174,17:22:12.174,67,-1,1968.49816849817,2.02857142857143,33.6212442810647
1743369732193,17:22:12.193,67,-1,1919.41391941392,2.02564102564103,33.6212442810647
1743369732213,17:22:12.213,67,-1,1871.79487179487,2.01831501831502,33.6212442810647
1743369732232,17:22:12.232,67,-1,1800,2.00512820512821,33.6212442810647
1743369732252,17:22:12.252,67,-1,1693.04029304029,1.99340659340659,33.6212442810647
1743369732271,17:22:12.271,67,-1,1587.54578754579,1.98754578754579,33.6212442810647
1743369732291,17:22:12.291,67,-1,1503.2967032967,1.98461538461538,33.6212442810647
1743369732310,17:22:12.310,67,-1,1463.00366300366,1.98754578754579,33.6212442810647
1743369732330,17:22:12.330,67,-1,1451.28205128205,1.97582417582418,33.6212442810647
1743369732349,17:22:12.349,67,-1,1452.01465201465,1.96556776556777,33.6212442810647
1743369732369,17:22:12.369,67,-1,1454.94505494505,1.96996336996337,33.6212442810647
1743369732388,17:22:12.388,67,-1,1437.36263736264,1.96410256410256,33.6212442810647
1743369732408,17:22:12.408,67,-1,1416.84981684982,1.96263736263736,33.6212442810647
1743369732427,17:22:12.427,67,-1,1393.40659340659,1.95384615384615,33.6212442810647
1743369732447,17:22:12.447,67,-1,1358.24175824176,1.95091575091575,33.6212442810647
1743369732466,17:22:12.466,67,-1,1319.41391941392,1.93919413919414,33.6212442810647
1743369732486,17:22:12.486,67,-1,1270.32967032967,1.93333333333333,33.6212442810647
1743369732505,17:22:12.505,67,-1,1224.17582417582,1.92893772893773,33.6312504932284
1743369732525,17:22:12.525,67,-1,1190.47619047619,1.92014652014652,33.6312504932284
1743369732544,17:22:12.544,67,-1,1158.97435897436,1.92454212454212,33.6312504932284
1743369732564,17:22:12.564,67,-1,1147.25274725275,1.92307692307692,33.6312504932284
1743369732583,17:22:12.583,67,-1,1136.99633699634,1.9054945054945,33.6312504932284
1743369732603,17:22:12.603,67,-1,1123.07692307692,1.88937728937729,33.6312504932284
1743369732622,17:22:12.622,67,-1,1123.07692307692,1.89230769230769,33.6312504932284
1743369732642,17:22:12.642,67,-1,1119.41391941392,1.89230769230769,33.6312504932284
1743369732661,17:22:12.661,67,-1,1105.49450549451,1.88058608058608,33.6312504932284
1743369732681,17:22:12.681,67,-1,1093.77289377289,1.86739926739927,33.6312504932284
1743369732700,17:22:12.700,67,-1,1087.91208791209,1.85860805860806,33.6312504932284
1743369732720,17:22:12.720,67,-1,1077.65567765568,1.85860805860806,33.6312504932284
1743369732739,17:22:12.739,67,-1,1067.39926739927,1.86153846153846,33.6312504932284
1743369732759,17:22:12.759,67,-1,1079.85347985348,1.86300366300366,33.6312504932284
1743369732778,17:22:12.778,67,-1,1165.56776556777,1.86593406593407,33.6312504932284
1743369732798,17:22:12.798,67,-1,1372.89377289377,1.87765567765568,33.6312504932284
1743369732817,17:22:12.817,67,-1,1646.15384615385,1.87619047619048,33.6312504932284
1743369732837,17:22:12.837,67,-1,1895.2380952381,1.87472527472527,33.6312504932284
1743369732856,17:22:12.856,67,-1,2067.39926739927,1.86886446886447,33.6312504932284
1743369732876,17:22:12.876,67,-1,2154.57875457875,1.86153846153846,33.6312504932284
1743369732895,17:22:12.895,67,-1,2195.6043956044,1.86007326007326,33.6312504932284
1743369732915,17:22:12.915,67,-1,2179.48717948718,1.85274725274725,33.6312504932284
1743369732934,17:22:12.934,67,-1,2134.06593406593,1.84249084249084,33.6312504932284
1743369732954,17:22:12.954,67,-1,2082.05128205128,1.83516483516483,33.6312504932284
1743369732973,17:22:12.973,67,-1,2039.56043956044,1.83223443223443,33.6312504932284
1743369732993,17:22:12.993,67,-1,1987.54578754579,1.83516483516483,33.6312504932284
1743369733012,17:22:13.012,67,-1,1902.5641025641,1.83956043956044,33.6312504932284
1743369733032,17:22:13.032,67,-1,1783.88278388278,1.84835164835165,33.6312504932284
1743369733051,17:22:13.051,67,-1,1644.68864468864,1.86153846153846,33.6312504932284
1743369733071,17:22:13.071,67,-1,1517.21611721612,1.88644688644689,33.6312504932284
1743369733090,17:22:13.090,67,-1,1441.02564102564,1.92893772893773,33.6312504932284
1743369733110,17:22:13.110,67,-1,1402.9304029304,1.97728937728938,33.6312504932284
1743369733129,17:22:13.129,67,-1,1397.0695970696,2.01538461538462,33.6312504932284
1743369733149,17:22:13.149,67,-1,1417.58241758242,2.04908424908425,33.6312504932284
1743369733168,17:22:13.168,67,-1,1430.03663003663,2.08864468864469,33.6312504932284
1743369733188,17:22:13.188,67,-1,1421.24542124542,2.13699633699634,33.6312504932284
1743369733207,17:22:13.207,67,-1,1387.54578754579,2.18974358974359,33.6312504932284
1743369733227,17:22:13.227,67,-1,1342.85714285714,2.24395604395604,33.6312504932284
1743369733246,17:22:13.246,67,-1,1290.10989010989,2.28498168498168,33.6312504932284
1743369733266,17:22:13.266,67,-1,1241.02564102564,2.32161172161172,33.6312504932284
1743369733285,17:22:13.285,67,-1,1186.08058608059,2.36410256410256,33.6312504932284
1743369733305,17:22:13.305,67,-1,1140.65934065934,2.41098901098901,33.6312504932284
1743369733324,17:22:13.324,67,-1,1123.07692307692,2.46080586080586,33.6312504932284
1743369733344,17:22:13.344,67,-1,1114.28571428571,2.51208791208791,33.6312504932284
1743369733363,17:22:13.363,67,-1,1093.04029304029,2.56190476190476,33.6312504932284
1743369733383,17:22:13.383,67,-1,1063.00366300366,2.60732600732601,33.6312504932284
1743369733402,17:22:13.402,67,-1,1059.34065934066,2.64981684981685,33.6312504932284
1743369733422,17:22:13.422,67,-1,1069.59706959707,2.68937728937729,33.6312504932284
1743369733441,17:22:13.441,67,-1,1079.85347985348,2.72161172161172,33.6312504932284
1743369733461,17:22:13.461,67,-1,1075.45787545788,2.75384615384615,33.6312504932284
1743369733480,17:22:13.480,67,-1,1076.19047619048,2.77875457875458,33.6312504932284
1743369733500,17:22:13.500,67,-1,1077.65567765568,2.803663003663,33.626247390057
1743369733519,17:22:13.519,67,-1,1057.87545787546,2.83003663003663,33.626247390057
1743369733539,17:22:13.539,67,-1,1034.43223443223,2.85347985347985,33.626247390057
1743369733558,17:22:13.558,67,-1,1013.91941391941,2.87399267399267,33.626247390057
1743369733578,17:22:13.578,67,-1,1008.05860805861,2.89157509157509,33.626247390057
1743369733597,17:22:13.597,67,-1,1049.81684981685,2.90915750915751,33.626247390057
1743369733617,17:22:13.617,67,-1,1192.67399267399,2.92820512820513,33.626247390057
1743369733636,17:22:13.636,67,-1,1438.09523809524,2.94139194139194,33.626247390057
1743369733656,17:22:13.656,67,-1,1707.69230769231,2.95457875457875,33.626247390057
1743369733675,17:22:13.675,67,-1,1947.25274725275,2.96483516483516,33.626247390057
1743369733695,17:22:13.695,67,-1,2114.28571428571,2.97802197802198,33.626247390057
1743369733714,17:22:13.714,67,-1,2194.87179487179,2.99120879120879,33.626247390057
1743369733734,17:22:13.734,67,-1,2216.84981684982,3.0029304029304,33.626247390057
1743369733753,17:22:13.753,67,-1,2195.6043956044,3.01465201465201,33.626247390057
1743369733773,17:22:13.773,67,-1,2136.26373626374,3.02490842490843,33.626247390057
1743369733792,17:22:13.792,67,-1,2067.39926739927,3.03516483516484,33.626247390057
1743369733812,17:22:13.812,67,-1,1998.5347985348,3.04249084249084,33.626247390057
1743369733831,17:22:13.831,67,-1,1916.48351648352,3.05128205128205,33.626247390057
1743369733851,17:22:13.851,67,-1,1835.16483516484,3.06007326007326,33.626247390057
1743369733870,17:22:13.870,67,-1,1726.73992673993,3.06739926739927,33.626247390057
1743369733890,17:22:13.890,67,-1,1618.31501831502,3.07765567765568,33.626247390057
1743369733909,17:22:13.909,67,-1,1534.06593406593,3.08498168498168,33.626247390057
1743369733929,17:22:13.929,67,-1,1471.79487179487,3.09084249084249,33.626247390057
1743369733948,17:22:13.948,67,-1,1440.29304029304,3.0981684981685,33.626247390057
1743369733968,17:22:13.968,67,-1,1433.69963369963,3.1040293040293,33.626247390057
1743369733987,17:22:13.987,67,-1,1437.36263736264,3.10989010989011,33.626247390057
1743369734007,17:22:14.007,67,-1,1434.43223443223,3.11428571428571,33.626247390057
1743369734026,17:22:14.026,67,-1,1413.18681318681,3.11868131868132,33.626247390057
1743369734046,17:22:14.046,67,-1,1374.35897435897,3.12307692307692,33.626247390057
1743369734065,17:22:14.065,67,-1,1319.41391941392,3.12747252747253,33.626247390057
1743369734085,17:22:14.085,67,-1,1265.20146520147,3.13040293040293,33.626247390057
1743369734104,17:22:14.104,67,-1,1225.64102564103,3.13333333333333,33.626247390057
1743369734124,17:22:14.124,67,-1,1178.02197802198,3.13626373626374,33.626247390057
1743369734143,17:22:14.143,67,-1,1147.25274725275,3.13919413919414,33.626247390057
1743369734163,17:22:14.163,67,-1,1121.61172161172,3.14065934065934,33.626247390057
1743369734182,17:22:14.182,67,-1,1098.9010989011,3.14358974358974,33.626247390057
1743369734202,17:22:14.202,67,-1,1092.30769230769,3.14505494505495,33.626247390057
1743369734221,17:22:14.221,67,-1,1063.73626373626,3.14798534798535,33.626247390057
1743369734241,17:22:14.241,67,-1,1034.43223443223,3.14798534798535,33.626247390057
1743369734260,17:22:14.260,67,-1,1013.91941391941,3.14798534798535,33.626247390057
1743369734280,17:22:14.280,67,-1,987.545787545787,3.14505494505495,33.626247390057
1743369734299,17:22:14.299,67,-1,983.882783882784,3.14505494505495,33.626247390057
1743369734319,17:22:14.319,67,-1,989.010989010989,3.14505494505495,33.626247390057
1743369734338,17:22:14.338,67,-1,998.534798534798,3.14945054945055,33.626247390057
1743369734358,17:22:14.358,67,-1,1005.12820512821,3.15238095238095,33.626247390057
1743369734377,17:22:14.377,67,-1,1013.18681318681,3.15238095238095,33.626247390057
1743369734397,17:22:14.397,67,-1,1010.25641025641,3.15238095238095,33.626247390057
1743369734416,17:22:14.416,67,-1,1003.663003663,3.15238095238095,33.626247390057
1743369734436,17:22:14.436,67,-1,992.673992673993,3.15091575091575,33.626247390057
1743369734455,17:22:14.455,67,-1,968.498168498168,3.15238095238095,33.626247390057
1743369734475,17:22:14.475,67,-1,950.915750915751,3.15238095238095,33.626247390057
1743369734494,17:22:14.494,67,-1,950.18315018315,3.15238095238095,33.6362535905791
1743369734514,17:22:14.514,68,-1,977.289377289377,3.15091575091575,33.6362535905791
1743369734533,17:22:14.533,68,-1,1082.05128205128,3.14945054945055,33.6362535905791
1743369734553,17:22:14.553,68,-1,1295.9706959707,3.14798534798535,33.6362535905791
1743369734572,17:22:14.572,68,-1,1576.55677655678,3.14652014652015,33.6362535905791
1743369734592,17:22:14.592,68,-1,1843.22344322344,3.14212454212454,33.6362535905791
1743369734611,17:22:14.611,68,-1,2037.36263736264,3.13479853479853,33.6362535905791
1743369734631,17:22:14.631,68,-1,2147.25274725275,3.13040293040293,33.6362535905791
1743369734650,17:22:14.650,68,-1,2185.34798534799,3.12454212454212,33.6362535905791
1743369734670,17:22:14.670,68,-1,2171.42857142857,3.11868131868132,33.6362535905791
1743369734689,17:22:14.689,68,-1,2120.14652014652,3.11282051282051,33.6362535905791
1743369734709,17:22:14.709,68,-1,2048.35164835165,3.10695970695971,33.6362535905791
1743369734728,17:22:14.728,68,-1,1991.94139194139,3.0996336996337,33.6362535905791
1743369734748,17:22:14.748,68,-1,1934.79853479853,3.09377289377289,33.6362535905791
1743369734767,17:22:14.767,68,-1,1879.85347985348,3.08937728937729,33.6362535905791
1743369734787,17:22:14.787,68,-1,1778.02197802198,3.08644688644689,33.6362535905791
1743369734806,17:22:14.806,68,-1,1638.09523809524,3.08351648351648,33.6362535905791
1743369734826,17:22:14.826,68,-1,1528.20512820513,3.08058608058608,33.6362535905791
1743369734845,17:22:14.845,68,-1,1462.27106227106,3.07912087912088,33.6362535905791
1743369734865,17:22:14.865,68,-1,1427.10622710623,3.07472527472527,33.6362535905791
1743369734884,17:22:14.884,68,-1,1427.83882783883,3.07179487179487,33.6362535905791
1743369734904,17:22:14.904,68,-1,1434.43223443223,3.06886446886447,33.6362535905791
1743369734923,17:22:14.923,68,-1,1427.10622710623,3.06593406593407,33.6362535905791
1743369734943,17:22:14.943,68,-1,1410.98901098901,3.06300366300366,33.6362535905791
1743369734962,17:22:14.962,68,-1,1381.68498168498,3.06153846153846,33.6362535905791
1743369734982,17:22:14.982,68,-1,1337.72893772894,3.05860805860806,33.6362535905791
1743369735001,17:22:15.001,68,-1,1291.57509157509,3.05714285714286,33.6362535905791
1743369735021,17:22:15.021,68,-1,1245.42124542125,3.05567765567766,33.6362535905791
1743369735040,17:22:15.040,68,-1,1206.59340659341,3.05567765567766,33.6362535905791
1743369735060,17:22:15.060,68,-1,1163.36996336996,3.05567765567766,33.6362535905791
1743369735079,17:22:15.079,68,-1,1128.20512820513,3.05421245421245,33.6362535905791
1743369735099,17:22:15.099,68,-1,1100.3663003663,3.05567765567766,33.6362535905791
1743369735118,17:22:15.118,68,-1,1071.79487179487,3.05567765567766,33.6362535905791
1743369735138,17:22:15.138,68,-1,1027.10622710623,3.05714285714286,33.6362535905791
1743369735157,17:22:15.157,68,-1,986.813186813187,3.05860805860806,33.6362535905791
1743369735177,17:22:15.177,68,-1,978.021978021978,3.06153846153846,33.6362535905791
1743369735196,17:22:15.196,68,-1,989.010989010989,3.06446886446886,33.6362535905791
1743369735216,17:22:15.216,68,-1,998.534798534798,3.06593406593407,33.6362535905791
1743369735235,17:22:15.235,68,-1,997.802197802198,3.07032967032967,33.6362535905791
1743369735255,17:22:15.255,68,-1,994.139194139194,3.07326007326007,33.6362535905791
1743369735274,17:22:15.274,70,-1,988.278388278388,3.07765567765568,33.6362535905791
1743369735294,17:22:15.294,70,-1,992.673992673993,3.08351648351648,33.6362535905791
1743369735313,17:22:15.313,70,-1,998.534798534798,3.08791208791209,33.6362535905791
1743369735333,17:22:15.333,70,-1,1010.98901098901,3.09377289377289,33.6362535905791
1743369735352,17:22:15.352,70,-1,1005.12820512821,3.0996336996337,33.6362535905791
1743369735372,17:22:15.372,70,-1,992.673992673993,3.10695970695971,33.6362535905791
1743369735391,17:22:15.391,70,-1,983.150183150183,3.11282051282051,33.6362535905791
1743369735411,17:22:15.411,70,-1,978.754578754579,3.12014652014652,33.6362535905791
1743369735430,17:22:15.430,70,-1,991.208791208791,3.12747252747253,33.6362535905791
1743369735450,17:22:15.450,70,-1,1073.26007326007,3.13479853479853,33.6362535905791
1743369735469,17:22:15.469,70,-1,1254.21245421245,3.14212454212454,33.6362535905791
1743369735489,17:22:15.489,70,-1,1508.42490842491,3.14945054945055,33.6462597678183
1743369735508,17:22:15.508,70,-1,1767.03296703297,3.15824175824176,33.6462597678183
1743369735528,17:22:15.528,70,-1,1976.55677655678,3.16556776556777,33.6462597678183
1743369735547,17:22:15.547,70,-1,2090.84249084249,3.17435897435897,33.6462597678183
1743369735567,17:22:15.567,70,-1,2125.27472527472,3.18315018315018,33.6462597678183
1743369735586,17:22:15.586,70,-1,2123.80952380952,3.19194139194139,33.6462597678183
1743369735606,17:22:15.606,70,-1,2090.84249084249,3.2007326007326,33.6462597678183
1743369735625,17:22:15.625,70,-1,2022.71062271062,3.20952380952381,33.6462597678183
1743369735645,17:22:15.645,70,-1,1938.46153846154,3.21831501831502,33.6462597678183
1743369735664,17:22:15.664,70,-1,1855.67765567766,3.22857142857143,33.6462597678183
1743369735684,17:22:15.684,70,-1,1772.89377289377,3.23736263736264,33.6462597678183
1743369735703,17:22:15.703,70,-1,1684.98168498168,3.24761904761905,33.6462597678183
1743369735723,17:22:15.723,70,-1,1589.01098901099,3.25934065934066,33.6462597678183
1743369735742,17:22:15.742,70,-1,1504.0293040293,3.26813186813187,33.6462597678183
1743369735762,17:22:15.762,70,-1,1446.15384615385,3.27838827838828,33.6462597678183
1743369735781,17:22:15.781,70,-1,1410.98901098901,3.28717948717949,33.6462597678183
1743369735801,17:22:15.801,70,-1,1388.27838827839,3.2959706959707,33.6462597678183
1743369735820,17:22:15.820,70,-1,1379.48717948718,3.30476190476191,33.6462597678183
1743369735840,17:22:15.840,70,-1,1372.89377289377,3.31208791208791,33.6462597678183
1743369735859,17:22:15.859,70,-1,1358.24175824176,3.31941391941392,33.6462597678183
1743369735879,17:22:15.879,70,-1,1333.33333333333,3.32673992673993,33.6462597678183
1743369735899,17:22:15.898,70,-1,1294.50549450549,3.33260073260073,33.6462597678183
1743369735918,17:22:15.918,70,-1,1244.68864468864,3.33846153846154,33.6462597678183
1743369735938,17:22:15.937,70,-1,1202.1978021978,3.34432234432234,33.6462597678183
1743369735957,17:22:15.957,70,-1,1158.24175824176,3.34871794871795,33.6462597678183
1743369735977,17:22:15.976,70,-1,1121.61172161172,3.35457875457875,33.6462597678183
1743369735996,17:22:15.996,70,-1,1103.2967032967,3.35897435897436,33.6462597678183
1743369736016,17:22:16.015,70,-1,1089.37728937729,3.36336996336996,33.6462597678183
1743369736035,17:22:16.035,79,-1,1068.86446886447,3.37655677655678,33.6462597678183
1743369736055,17:22:16.055,79,-1,1057.87545787546,3.38534798534798,33.6462597678183
1743369736074,17:22:16.074,79,-1,1051.28205128205,3.38974358974359,33.6462597678183
1743369736094,17:22:16.094,79,-1,1052.01465201465,3.39413919413919,33.6462597678183
1743369736113,17:22:16.113,79,-1,1045.42124542125,3.3985347985348,33.6462597678183
1743369736133,17:22:16.133,79,-1,1016.11721611722,3.4014652014652,33.6462597678183
1743369736152,17:22:16.152,79,-1,984.615384615385,3.4043956043956,33.6462597678183
1743369736172,17:22:16.172,79,-1,956.776556776557,3.40732600732601,33.6462597678183
1743369736191,17:22:16.191,79,-1,956.776556776557,3.41172161172161,33.6462597678183
1743369736211,17:22:16.211,79,-1,989.010989010989,3.41318681318681,33.6462597678183
1743369736230,17:22:16.230,79,-1,1002.9304029304,3.41465201465201,33.6462597678183
1743369736250,17:22:16.250,79,-1,988.278388278388,3.41758241758242,33.6462597678183
1743369736269,17:22:16.269,79,-1,994.871794871795,3.41758241758242,33.6462597678183
1743369736289,17:22:16.289,79,-1,1001.4652014652,3.42051282051282,33.6462597678183
1743369736308,17:22:16.308,79,-1,997.069597069597,3.42197802197802,33.6462597678183
1743369736328,17:22:16.328,79,-1,980.21978021978,3.42197802197802,33.6462597678183
1743369736347,17:22:16.347,79,-1,966.300366300366,3.42051282051282,33.6462597678183
1743369736367,17:22:16.367,79,-1,972.893772893773,3.42197802197802,33.6462597678183
1743369736386,17:22:16.386,79,-1,1044.68864468864,3.42197802197802,33.6462597678183
1743369736406,17:22:16.406,79,-1,1221.97802197802,3.42197802197802,33.6462597678183
1743369736425,17:22:16.425,79,-1,1484.98168498168,3.42344322344322,33.6462597678183
1743369736445,17:22:16.445,79,-1,1752.38095238095,3.42197802197802,33.6462597678183
1743369736464,17:22:16.464,79,-1,1956.77655677656,3.42197802197802,33.6462597678183
1743369736484,17:22:16.484,79,-1,2069.59706959707,3.42051282051282,33.6462597678183
1743369736503,17:22:16.503,79,-1,2104.7619047619,3.42051282051282,33.6462597678183
1743369736523,17:22:16.523,79,-1,2080.58608058608,3.41904761904762,33.6462597678183
1743369736542,17:22:16.542,79,-1,2029.30402930403,3.41758241758242,33.6462597678183
1743369736562,17:22:16.562,79,-1,1959.70695970696,3.41758241758242,33.6462597678183
1743369736581,17:22:16.581,79,-1,1876.92307692308,3.41465201465201,33.6462597678183
1743369736601,17:22:16.601,79,-1,1798.5347985348,3.41318681318681,33.6462597678183
1743369736620,17:22:16.620,79,-1,1709.89010989011,3.41172161172161,33.6462597678183
1743369736640,17:22:16.640,79,-1,1616.84981684982,3.40879120879121,33.6462597678183
1743369736659,17:22:16.659,79,-1,1520.87912087912,3.40732600732601,33.6462597678183
1743369736679,17:22:16.679,79,-1,1445.42124542125,3.4043956043956,33.6462597678183
1743369736698,17:22:16.698,79,-1,1395.6043956044,3.4014652014652,33.6462597678183
1743369736718,17:22:16.718,79,-1,1378.75457875458,3.4,33.6462597678183
1743369736737,17:22:16.737,79,-1,1378.02197802198,3.3970695970696,33.6462597678183
1743369736757,17:22:16.757,79,-1,1384.61538461538,3.39413919413919,33.6462597678183
1743369736776,17:22:16.776,79,-1,1386.81318681319,3.39120879120879,33.6462597678183
1743369736796,17:22:16.796,79,-1,1383.15018315018,3.38974358974359,33.6462597678183
1743369736815,17:22:16.815,79,-1,1366.30036630037,3.38681318681319,33.6462597678183
1743369736835,17:22:16.835,79,-1,1339.92673992674,3.38388278388278,33.6462597678183
1743369736854,17:22:16.854,79,-1,1307.69230769231,3.38241758241758,33.6462597678183
1743369736874,17:22:16.874,79,-1,1275.45787545788,3.37948717948718,33.6462597678183
1743369736893,17:22:16.893,79,-1,1246.15384615385,3.37509157509157,33.6462597678183
1743369736913,17:22:16.913,79,-1,1208.79120879121,3.37069597069597,33.6462597678183
1743369736932,17:22:16.932,79,-1,1172.16117216117,3.36630036630037,33.6462597678183
1743369736952,17:22:16.952,79,-1,1150.18315018315,3.35897435897436,33.6462597678183
1743369736971,17:22:16.971,79,-1,1139.19413919414,3.35457875457875,33.6462597678183
1743369736991,17:22:16.991,79,-1,1132.60073260073,3.35311355311355,33.6462597678183
1743369737010,17:22:17.010,79,-1,1124.54212454212,3.35311355311355,33.6462597678183
1743369737030,17:22:17.030,79,-1,1123.07692307692,3.35457875457875,33.6462597678183
1743369737049,17:22:17.049,79,-1,1129.67032967033,3.35750915750916,33.6462597678183
1743369737069,17:22:17.069,79,-1,1136.99633699634,3.36483516483516,33.6462597678183
1743369737088,17:22:17.088,79,-1,1139.92673992674,3.36483516483516,33.6462597678183
1743369737108,17:22:17.108,79,-1,1145.05494505494,3.36043956043956,33.6462597678183
1743369737127,17:22:17.127,79,-1,1136.26373626374,3.35604395604396,33.6462597678183
1743369737147,17:22:17.147,79,-1,1112.08791208791,3.35164835164835,33.6462597678183
1743369737166,17:22:17.166,79,-1,1087.91208791209,3.34725274725275,33.6462597678183
1743369737186,17:22:17.186,79,-1,1064.46886446886,3.34871794871795,33.6462597678183
1743369737205,17:22:17.205,79,-1,1052.01465201465,3.35457875457875,33.6462597678183
1743369737225,17:22:17.225,79,-1,1073.99267399267,3.35457875457875,33.6462597678183
1743369737244,17:22:17.244,79,-1,1208.05860805861,3.35457875457875,33.6462597678183
1743369737264,17:22:17.264,79,-1,1449.08424908425,3.35164835164835,33.6462597678183
1743369737283,17:22:17.283,79,-1,1714.28571428571,3.35311355311355,33.6462597678183
1743369737303,17:22:17.303,79,-1,1939.19413919414,3.35018315018315,33.6462597678183
1743369737322,17:22:17.322,79,-1,2071.06227106227,3.31355311355311,33.6462597678183
1743369737342,17:22:17.342,79,-1,2105.49450549451,3.25934065934066,33.6462597678183
1743369737361,17:22:17.361,79,-1,2082.78388278388,3.16556776556777,33.6462597678183
1743369737381,17:22:17.381,79,-1,2024.90842490842,3.06593406593407,33.6462597678183
1743369737400,17:22:17.400,79,-1,1958.24175824176,2.95604395604396,33.6462597678183
1743369737420,17:22:17.420,79,-1,1884.24908424908,2.83736263736264,33.6462597678183
1743369737439,17:22:17.439,79,-1,1819.78021978022,2.73919413919414,33.6462597678183
1743369737459,17:22:17.459,79,-1,1750.91575091575,2.65567765567766,33.6462597678183
1743369737478,17:22:17.478,79,-1,1676.92307692308,2.5970695970696,33.6462597678183
1743369737498,17:22:17.498,79,-1,1592.67399267399,2.55164835164835,33.6462597678183
1743369737517,17:22:17.517,79,-1,1509.15750915751,2.51501831501831,33.6462597678183
1743369737537,17:22:17.537,79,-1,1454.21245421245,2.47985347985348,33.6462597678183
1743369737556,17:22:17.556,79,-1,1412.45421245421,2.45641025641026,33.6462597678183
1743369737576,17:22:17.576,79,-1,1395.6043956044,2.44908424908425,33.6462597678183
1743369737595,17:22:17.595,79,-1,1392.67399267399,2.45641025641026,33.6462597678183
1743369737615,17:22:17.615,79,-1,1401.4652014652,2.4974358974359,33.6462597678183
1743369737634,17:22:17.634,79,-1,1399.2673992674,2.59413919413919,33.6462597678183
1743369737654,17:22:17.654,79,-1,1380.95238095238,2.72161172161172,33.6462597678183
1743369737673,17:22:17.673,75,-1,1360.43956043956,2.82857142857143,33.6462597678183
1743369737693,17:22:17.693,75,-1,1304.7619047619,2.91208791208791,33.6462597678183
1743369737712,17:22:17.712,75,-1,1251.28205128205,2.97069597069597,33.6462597678183
1743369737732,17:22:17.732,75,-1,1210.25641025641,3.01465201465201,33.6462597678183
1743369737751,17:22:17.751,75,-1,1175.82417582418,3.03516483516484,33.6462597678183
1743369737771,17:22:17.771,75,-1,1141.39194139194,3.04981684981685,33.6462597678183
1743369737790,17:22:17.790,75,-1,1117.21611721612,3.06446886446886,33.6462597678183
1743369737810,17:22:17.810,75,-1,1095.9706959707,3.07472527472527,33.6462597678183
1743369737829,17:22:17.829,75,-1,1082.78388278388,3.08498168498168,33.6462597678183
1743369737849,17:22:17.849,75,-1,1077.65567765568,3.0981684981685,33.6462597678183
1743369737868,17:22:17.868,75,-1,1082.78388278388,3.10549450549451,33.6462597678183
1743369737888,17:22:17.888,75,-1,1093.77289377289,3.10989010989011,33.6462597678183
1743369737907,17:22:17.907,75,-1,1116.48351648352,3.11575091575092,33.6462597678183
1743369737927,17:22:17.927,75,-1,1126.00732600733,3.1010989010989,33.6462597678183
1743369737946,17:22:17.946,75,-1,1125.27472527473,3.0029304029304,33.6462597678183
1743369737966,17:22:17.966,75,-1,1120.14652014652,2.82271062271062,33.6462597678183
1743369737985,17:22:17.985,75,-1,1101.0989010989,2.64981684981685,33.6462597678183
1743369738005,17:22:18.005,75,-1,1078.38827838828,2.52527472527472,33.6462597678183
1743369738024,17:22:18.024,75,-1,1054.94505494505,2.44761904761905,33.6462597678183
1743369738044,17:22:18.044,75,-1,1053.47985347985,2.396336996337,33.6462597678183
1743369738063,17:22:18.063,75,-1,1084.98168498169,2.35824175824176,33.6462597678183
1743369738083,17:22:18.083,75,-1,1197.8021978022,2.32747252747253,33.6462597678183
1743369738102,17:22:18.102,75,-1,1423.44322344322,2.3025641025641,33.6462597678183
1743369738122,17:22:18.122,75,-1,1705.49450549451,2.2952380952381,33.6462597678183
1743369738141,17:22:18.141,75,-1,1959.70695970696,2.31135531135531,33.6462597678183
1743369738161,17:22:18.161,75,-1,2123.07692307692,2.38168498168498,33.6462597678183
1743369738180,17:22:18.180,75,-1,2177.28937728938,2.48571428571429,33.6462597678183
1743369738200,17:22:18.200,75,-1,2167.03296703297,2.59413919413919,33.6462597678183
1743369738219,17:22:18.219,75,-1,2114.28571428571,2.68937728937729,33.6462597678183
1743369738239,17:22:18.239,75,-1,2043.95604395604,2.76556776556777,33.6462597678183
1743369738258,17:22:18.258,75,-1,1959.70695970696,2.82271062271062,33.6462597678183
1743369738278,17:22:18.278,75,-1,1886.44688644689,2.85054945054945,33.6462597678183
1743369738297,17:22:18.297,75,-1,1816.84981684982,2.86373626373626,33.6462597678183
1743369738317,17:22:18.317,75,-1,1741.39194139194,2.87106227106227,33.6462597678183
1743369738336,17:22:18.336,75,-1,1624.90842490842,2.86373626373626,33.6462597678183
1743369738356,17:22:18.356,75,-1,1506.22710622711,2.83589743589744,33.6462597678183
1743369738375,17:22:18.375,75,-1,1438.82783882784,2.80952380952381,33.6462597678183
1743369738395,17:22:18.395,75,-1,1408.79120879121,2.78168498168498,33.6462597678183
1743369738414,17:22:18.414,75,-1,1394.13919413919,2.76703296703297,33.6462597678183
1743369738434,17:22:18.434,75,-1,1405.86080586081,2.75824175824176,33.6462597678183
1743369738453,17:22:18.453,75,-1,1423.44322344322,2.72893772893773,33.6462597678183
1743369738473,17:22:18.473,75,-1,1432.96703296703,2.6967032967033,33.6512628477067
1743369738492,17:22:18.492,75,-1,1424.17582417582,2.67619047619048,33.6512628477067
1743369738512,17:22:18.512,75,-1,1381.68498168498,2.66153846153846,33.6512628477067
1743369738531,17:22:18.531,75,-1,1327.47252747253,2.65128205128205,33.6512628477067
1743369738551,17:22:18.551,75,-1,1283.51648351648,2.64688644688645,33.6512628477067
1743369738570,17:22:18.570,75,-1,1256.41025641026,2.64688644688645,33.6512628477067
1743369738590,17:22:18.590,72,-1,1238.82783882784,2.67032967032967,33.6512628477067
1743369738609,17:22:18.609,72,-1,1202.9304029304,2.78315018315018,33.6512628477067
1743369738629,17:22:18.629,72,-1,1166.30036630037,2.85054945054945,33.6512628477067
1743369738648,17:22:18.648,72,-1,1142.85714285714,2.77142857142857,33.6512628477067
1743369738668,17:22:18.668,72,-1,1126.73992673993,2.64835164835165,33.6512628477067
1743369738687,17:22:18.687,72,-1,1112.08791208791,2.50622710622711,33.6512628477067
1743369738707,17:22:18.707,72,-1,1096.7032967033,2.37728937728938,33.6512628477067
1743369738726,17:22:18.726,72,-1,1097.4358974359,2.28058608058608,33.6512628477067
1743369738746,17:22:18.746,72,-1,1096.7032967033,2.22197802197802,33.6512628477067
1743369738765,17:22:18.765,72,-1,1073.99267399267,2.18241758241758,33.6512628477067
1743369738785,17:22:18.785,72,-1,1050.54945054945,2.15457875457875,33.6512628477067
1743369738804,17:22:18.804,72,-1,1042.49084249084,2.13699633699634,33.6512628477067
1743369738824,17:22:18.824,72,-1,1049.81684981685,2.11941391941392,33.6512628477067
1743369738843,17:22:18.843,72,-1,1051.28205128205,2.1003663003663,33.6512628477067
1743369738863,17:22:18.863,72,-1,1040.29304029304,2.08717948717949,33.6512628477067
1743369738882,17:22:18.882,72,-1,1034.43223443223,2.08131868131868,33.6512628477067
1743369738902,17:22:18.902,72,-1,1043.22344322344,2.07838827838828,33.6512628477067
1743369738921,17:22:18.921,72,-1,1066.66666666667,2.07985347985348,33.6512628477067
1743369738941,17:22:18.941,72,-1,1153.84615384615,2.08278388278388,33.6512628477067
1743369738960,17:22:18.960,72,-1,1348.71794871795,2.09010989010989,33.6512628477067
1743369738980,17:22:18.980,72,-1,1606.59340659341,2.11941391941392,33.6512628477067
1743369738999,17:22:18.999,72,-1,1870.32967032967,2.18241758241758,33.6512628477067
1743369739019,17:22:19.019,72,-1,2057.14285714286,2.28058608058608,33.6512628477067
1743369739038,17:22:19.038,72,-1,2155.31135531136,2.37875457875458,33.6512628477067
1743369739058,17:22:19.058,72,-1,2190.47619047619,2.45934065934066,33.6512628477067
1743369739077,17:22:19.077,72,-1,2167.76556776557,2.51648351648352,33.6512628477067
1743369739097,17:22:19.097,72,-1,2115.01831501831,2.57069597069597,33.6512628477067
1743369739116,17:22:19.116,72,-1,2036.63003663004,2.6014652014652,33.6512628477067
1743369739136,17:22:19.136,72,-1,1968.49816849817,2.5970695970696,33.6512628477067
1743369739155,17:22:19.155,72,-1,1898.9010989011,2.6014652014652,33.6512628477067
1743369739175,17:22:19.175,72,-1,1824.90842490842,2.6029304029304,33.6512628477067
1743369739194,17:22:19.194,72,-1,1732.60073260073,2.61025641025641,33.6512628477067
1743369739214,17:22:19.214,72,-1,1602.1978021978,2.62344322344322,33.6512628477067
1743369739233,17:22:19.233,72,-1,1482.78388278388,2.63809523809524,33.6512628477067
1743369739253,17:22:19.253,72,-1,1424.90842490842,2.66300366300366,33.6512628477067
1743369739272,17:22:19.272,72,-1,1403.663003663,2.65567765567766,33.6512628477067
1743369739292,17:22:19.292,72,-1,1412.45421245421,2.54725274725275,33.6512628477067
1743369739311,17:22:19.311,72,-1,1427.83882783883,2.40659340659341,33.6512628477067
1743369739331,17:22:19.331,72,-1,1445.42124542125,2.2996336996337,33.6512628477067
1743369739350,17:22:19.350,72,-1,1445.42124542125,2.22637362637363,33.6512628477067
1743369739370,17:22:19.370,72,-1,1421.97802197802,2.17362637362637,33.6512628477067
1743369739389,17:22:19.389,72,-1,1371.42857142857,2.13699633699634,33.6512628477067
1743369739409,17:22:19.409,72,-1,1321.61172161172,2.11208791208791,33.6512628477067
1743369739428,17:22:19.428,72,-1,1272.52747252747,2.09157509157509,33.6512628477067
1743369739448,17:22:19.448,72,-1,1227.83882783883,2.07545787545788,33.6512628477067
1743369739467,17:22:19.467,72,-1,1186.81318681319,2.06520146520146,33.6462597678183
1743369739487,17:22:19.487,72,-1,1159.70695970696,2.05934065934066,33.6462597678183
1743369739506,17:22:19.506,65,-1,1145.78754578755,2.06080586080586,33.6462597678183
1743369739526,17:22:19.526,65,-1,1131.13553113553,2.07692307692308,33.6462597678183
1743369739545,17:22:19.545,65,-1,1112.08791208791,2.13260073260073,33.6462597678183
1743369739565,17:22:19.565,65,-1,1087.17948717949,2.21318681318681,33.6462597678183
1743369739584,17:22:19.584,65,-1,1065.20146520147,2.3010989010989,33.6462597678183
1743369739604,17:22:19.604,65,-1,1057.87545787546,2.38168498168498,33.6462597678183
1743369739623,17:22:19.623,65,-1,1063.00366300366,2.43882783882784,33.6462597678183
1743369739643,17:22:19.643,65,-1,1068.13186813187,2.49157509157509,33.6462597678183
1743369739662,17:22:19.662,65,-1,1060.07326007326,2.4989010989011,33.6462597678183
1743369739682,17:22:19.682,65,-1,1057.87545787546,2.48864468864469,33.6462597678183
1743369739701,17:22:19.701,65,-1,1045.42124542125,2.46227106227106,33.6462597678183
1743369739721,17:22:19.721,65,-1,1014.65201465201,2.41831501831502,33.6462597678183
1743369739740,17:22:19.740,65,-1,980.952380952381,2.37582417582418,33.6462597678183
1743369739760,17:22:19.760,65,-1,966.300366300366,2.32454212454212,33.6462597678183
1743369739779,17:22:19.779,65,-1,986.813186813187,2.27765567765568,33.6462597678183
1743369739799,17:22:19.799,65,-1,1023.44322344322,2.23076923076923,33.6462597678183
1743369739818,17:22:19.818,65,-1,1112.08791208791,2.18241758241758,33.6462597678183
1743369739838,17:22:19.838,65,-1,1290.84249084249,2.14871794871795,33.6462597678183
1743369739857,17:22:19.857,65,-1,1547.25274725275,2.12673992673993,33.6462597678183
1743369739877,17:22:19.877,65,-1,1804.3956043956,2.12087912087912,33.6462597678183
1743369739896,17:22:19.896,65,-1,2006.59340659341,2.11941391941392,33.6462597678183
1743369739916,17:22:19.916,65,-1,2106.95970695971,2.12234432234432,33.6462597678183
1743369739935,17:22:19.935,65,-1,2132.60073260073,2.13260073260073,33.6462597678183
1743369739955,17:22:19.955,65,-1,2112.82051282051,2.13553113553114,33.6462597678183
1743369739974,17:22:19.974,65,-1,2063.73626373626,2.13699633699634,33.6462597678183
1743369739994,17:22:19.994,65,-1,2006.59340659341,2.13846153846154,33.6462597678183
1743369740013,17:22:20.013,65,-1,1952.38095238095,2.14285714285714,33.6462597678183
1743369740033,17:22:20.033,65,-1,1900.3663003663,2.14285714285714,33.6462597678183
1743369740052,17:22:20.052,65,-1,1836.63003663004,2.13992673992674,33.6462597678183
1743369740072,17:22:20.072,65,-1,1731.86813186813,2.13699633699634,33.6462597678183
1743369740091,17:22:20.091,65,-1,1612.45421245421,2.13406593406593,33.6462597678183
1743369740111,17:22:20.111,65,-1,1511.35531135531,2.13113553113553,33.6462597678183
1743369740130,17:22:20.130,65,-1,1432.96703296703,2.12820512820513,33.6462597678183
1743369740150,17:22:20.150,65,-1,1380.21978021978,2.12673992673993,33.6462597678183
1743369740169,17:22:20.169,65,-1,1362.63736263736,2.12673992673993,33.6462597678183
1743369740189,17:22:20.189,65,-1,1361.90476190476,2.12820512820513,33.6462597678183
1743369740208,17:22:20.208,65,-1,1356.77655677656,2.13553113553114,33.6462597678183
1743369740228,17:22:20.228,65,-1,1338.46153846154,2.13699633699634,33.6462597678183
1743369740247,17:22:20.247,65,-1,1295.9706959707,2.14139194139194,33.6462597678183
1743369740267,17:22:20.267,65,-1,1238.09523809524,2.14285714285714,33.6462597678183
1743369740286,17:22:20.286,65,-1,1189.74358974359,2.14432234432234,33.6462597678183
1743369740306,17:22:20.306,65,-1,1154.57875457875,2.14578754578755,33.6462597678183
1743369740325,17:22:20.325,65,-1,1128.20512820513,2.15018315018315,33.6462597678183
1743369740345,17:22:20.345,65,-1,1109.89010989011,2.15164835164835,33.6462597678183
1743369740364,17:22:20.364,65,-1,1087.91208791209,2.15164835164835,33.6462597678183
1743369740384,17:22:20.384,65,-1,1071.79487179487,2.15457875457875,33.6462597678183
1743369740403,17:22:20.403,65,-1,1072.52747252747,2.15750915750916,33.6462597678183
1743369740423,17:22:20.423,65,-1,1066.66666666667,2.16043956043956,33.6462597678183
1743369740442,17:22:20.442,65,-1,1050.54945054945,2.16336996336996,33.6462597678183
1743369740462,17:22:20.462,65,-1,1037.36263736264,2.16336996336996,33.6462597678183
1743369740481,17:22:20.481,65,-1,1019.04761904762,2.16483516483516,33.6462597678183
1743369740501,17:22:20.501,65,-1,1009.52380952381,2.16483516483516,33.6462597678183
1743369740520,17:22:20.520,65,-1,1018.31501831502,2.16923076923077,33.6462597678183
1743369740540,17:22:20.540,65,-1,1019.78021978022,2.17069597069597,33.6462597678183
1743369740559,17:22:20.559,65,-1,1016.11721611722,2.17509157509157,33.6462597678183
1743369740579,17:22:20.579,65,-1,1003.663003663,2.18241758241758,33.6462597678183
1743369740598,17:22:20.598,65,-1,1007.32600732601,2.19413919413919,33.6462597678183
1743369740618,17:22:20.618,65,-1,1005.12820512821,2.20879120879121,33.6462597678183
1743369740637,17:22:20.637,65,-1,992.673992673993,2.22051282051282,33.6462597678183
1743369740657,17:22:20.657,65,-1,969.230769230769,2.23223443223443,33.6462597678183
1743369740676,17:22:20.676,65,-1,960.43956043956,2.25860805860806,33.6462597678183
1743369740696,17:22:20.696,65,-1,979.487179487179,2.38608058608059,33.6462597678183
1743369740715,17:22:20.715,65,-1,1053.47985347985,2.51501831501831,33.6462597678183
1743369740735,17:22:20.735,65,-1,1224.90842490842,2.56923076923077,33.6462597678183
1743369740754,17:22:20.754,65,-1,1473.26007326007,2.59413919413919,33.6462597678183
1743369740774,17:22:20.774,65,-1,1727.47252747253,2.61318681318681,33.6462597678183
1743369740793,17:22:20.793,65,-1,1930.40293040293,2.62051282051282,33.6462597678183
1743369740813,17:22:20.813,65,-1,2045.42124542125,2.62051282051282,33.6462597678183
1743369740832,17:22:20.832,65,-1,2074.72527472527,2.62344322344322,33.6462597678183
1743369740852,17:22:20.852,65,-1,2057.14285714286,2.61465201465201,33.6462597678183
1743369740871,17:22:20.871,65,-1,2016.84981684982,2.58388278388278,33.6462597678183
1743369740891,17:22:20.891,65,-1,1959.70695970696,2.53553113553113,33.6462597678183
1743369740910,17:22:20.910,65,-1,1896.7032967033,2.47252747252747,33.6462597678183
1743369740930,17:22:20.930,65,-1,1827.10622710623,2.41538461538462,33.6462597678183
1743369740949,17:22:20.949,65,-1,1761.90476190476,2.36556776556777,33.6462597678183
1743369740969,17:22:20.969,65,-1,1681.31868131868,2.30989010989011,33.6462597678183
1743369740988,17:22:20.988,65,-1,1586.81318681319,2.26153846153846,33.6462597678183
1743369741008,17:22:21.008,65,-1,1492.30769230769,2.21904761904762,33.6462597678183
1743369741027,17:22:21.027,65,-1,1421.24542124542,2.17216117216117,33.6462597678183
1743369741047,17:22:21.047,65,-1,1389.74358974359,2.13992673992674,33.6462597678183
1743369741066,17:22:21.066,65,-1,1400,2.10769230769231,33.6462597678183
1743369741086,17:22:21.086,65,-1,1408.05860805861,2.07985347985348,33.6462597678183
1743369741105,17:22:21.105,65,-1,1413.91941391941,2.05347985347985,33.6462597678183
1743369741125,17:22:21.125,65,-1,1408.79120879121,2.03296703296703,33.6462597678183
1743369741144,17:22:21.144,65,-1,1390.47619047619,2.01684981684982,33.6462597678183
1743369741164,17:22:21.164,65,-1,1353.84615384615,2.0007326007326,33.6462597678183
1743369741183,17:22:21.183,65,-1,1306.22710622711,1.98461538461538,33.6462597678183
1743369741203,17:22:21.203,65,-1,1255.67765567766,1.96703296703297,33.6462597678183
1743369741222,17:22:21.222,65,-1,1205.12820512821,1.95531135531136,33.6462597678183
1743369741242,17:22:21.242,65,-1,1165.56776556777,1.94212454212454,33.6462597678183
1743369741261,17:22:21.261,65,-1,1136.99633699634,1.93040293040293,33.6462597678183
1743369741281,17:22:21.281,64,-1,1110.62271062271,1.92161172161172,33.6462597678183
1743369741300,17:22:21.300,64,-1,1084.98168498169,1.91428571428571,33.6462597678183
1743369741320,17:22:21.320,64,-1,1073.99267399267,1.90989010989011,33.6462597678183
1743369741339,17:22:21.339,64,-1,1062.27106227106,1.91721611721612,33.6462597678183
1743369741359,17:22:21.359,64,-1,1057.87545787546,1.92600732600733,33.6462597678183
1743369741378,17:22:21.378,64,-1,1054.21245421245,1.93626373626374,33.6462597678183
1743369741398,17:22:21.398,64,-1,1052.74725274725,1.93479853479853,33.6462597678183
1743369741417,17:22:21.417,64,-1,1058.60805860806,1.92893772893773,33.6462597678183
1743369741437,17:22:21.437,64,-1,1054.94505494505,1.92161172161172,33.6462597678183
1743369741456,17:22:21.456,64,-1,1055.67765567766,1.91428571428571,33.6612689900212
1743369741476,17:22:21.476,64,-1,1045.42124542125,1.9054945054945,33.6612689900212
1743369741495,17:22:21.495,64,-1,1043.95604395604,1.89377289377289,33.6612689900212
1743369741515,17:22:21.515,64,-1,1066.66666666667,1.87912087912088,33.6612689900212
1743369741534,17:22:21.534,64,-1,1130.40293040293,1.86739926739927,33.6612689900212
1743369741554,17:22:21.554,64,-1,1271.79487179487,1.85421245421245,33.6612689900212
1743369741573,17:22:21.573,64,-1,1494.50549450549,1.84542124542125,33.6612689900212
1743369741593,17:22:21.593,64,-1,1718.68131868132,1.83516483516483,33.6612689900212
1743369741612,17:22:21.612,64,-1,1891.57509157509,1.82783882783883,33.6612689900212
1743369741632,17:22:21.632,64,-1,1991.94139194139,1.81465201465201,33.6612689900212
1743369741651,17:22:21.651,64,-1,2004.3956043956,1.80586080586081,33.6612689900212
1743369741671,17:22:21.671,64,-1,1969.23076923077,1.8,33.6612689900212
1743369741690,17:22:21.690,64,-1,1921.61172161172,1.7956043956044,33.6612689900212
1743369741710,17:22:21.710,64,-1,1876.92307692308,1.79413919413919,33.6612689900212
1743369741729,17:22:21.729,64,-1,1840.29304029304,1.7956043956044,33.6612689900212
1743369741749,17:22:21.749,64,-1,1794.13919413919,1.80732600732601,33.6612689900212
1743369741768,17:22:21.768,64,-1,1739.92673992674,1.85274725274725,33.6612689900212
1743369741788,17:22:21.788,64,-1,1646.15384615385,1.93186813186813,33.6612689900212
1743369741807,17:22:21.807,64,-1,1523.07692307692,2.02417582417582,33.6612689900212
1743369741827,17:22:21.827,64,-1,1421.24542124542,2.0989010989011,33.6612689900212
1743369741846,17:22:21.846,64,-1,1372.89377289377,2.14725274725275,33.6612689900212
1743369741866,17:22:21.866,64,-1,1359.70695970696,2.18827838827839,33.6612689900212
