RawTimestamp,LocalTime,HR_Direct,HR_Buffered,PPG,GSR,Temperature
1743370309106,17:31:49.106,-1,-1,0,0.482850482850483,26.4608428180218
1743370309126,17:31:49.126,-1,-1,0,0.482850482850483,26.4608428180218
1743370309145,17:31:49.145,-1,-1,0,1.80416598327045,26.4608428180218
1743370309165,17:31:49.165,-1,-1,0,1.80416598327045,26.4608428180218
1743370309184,17:31:49.184,-1,-1,0,1.80416598327045,26.4608428180218
1743370309204,17:31:49.204,-1,-1,0,1.80416598327045,26.4608428180218
1743370309223,17:31:49.223,-1,-1,0,1.80416598327045,26.4608428180218
1743370309243,17:31:49.243,-1,-1,0,1.77917320774464,26.4608428180218
1743370309262,17:31:49.262,-1,-1,0,1.77917320774464,26.4608428180218
1743370309282,17:31:49.282,-1,-1,0,1.77917320774464,26.4608428180218
1743370309301,17:31:49.301,-1,-1,0,1.77917320774464,26.4608428180218
1743370309321,17:31:49.321,-1,-1,0,1.77917320774464,26.4608428180218
1743370309340,17:31:49.340,-1,-1,0,1.77362637362637,26.4608428180218
1743370309360,17:31:49.360,-1,-1,0,1.77362637362637,26.4608428180218
1743370309379,17:31:49.379,-1,-1,0,1.77216117216117,26.4608428180218
1743370309399,17:31:49.399,-1,-1,0,1.77069597069597,26.4608428180218
1743370309418,17:31:49.418,-1,-1,0,1.77069597069597,26.4608428180218
1743370309438,17:31:49.438,-1,-1,0,1.76923076923077,26.4608428180218
1743370309457,17:31:49.457,-1,-1,0,1.76776556776557,26.4608428180218
1743370309477,17:31:49.477,-1,-1,0,1.76630036630037,26.4608428180218
1743370309496,17:31:49.496,-1,-1,0,1.76483516483516,26.4608428180218
1743370309516,17:31:49.516,-1,-1,0,1.76336996336996,26.4608428180218
1743370309535,17:31:49.535,-1,-1,0,1.76336996336996,26.4608428180218
1743370309555,17:31:49.555,-1,-1,0,1.76190476190476,26.4608428180218
1743370309574,17:31:49.574,-1,-1,0,1.76190476190476,26.4608428180218
1743370309594,17:31:49.594,-1,-1,0,1.76043956043956,26.4608428180218
1743370309613,17:31:49.613,-1,-1,0,1.75897435897436,26.4608428180218
1743370309633,17:31:49.633,-1,-1,0,1.75897435897436,26.4608428180218
1743370309652,17:31:49.652,-1,-1,0,1.75750915750916,26.4608428180218
1743370309672,17:31:49.672,-1,-1,0,1.75750915750916,26.4608428180218
1743370309691,17:31:49.691,-1,-1,0,1.75604395604396,26.4608428180218
1743370309711,17:31:49.711,-1,-1,0,1.75604395604396,26.4608428180218
1743370309730,17:31:49.730,-1,-1,0,1.75457875457875,26.4608428180218
1743370309750,17:31:49.750,-1,-1,0,1.75457875457875,26.4608428180218
1743370309769,17:31:49.769,-1,-1,0,1.75457875457875,26.4608428180218
1743370309789,17:31:49.789,-1,-1,0,1.75311355311355,26.4608428180218
1743370309808,17:31:49.808,-1,-1,0,1.75311355311355,26.4608428180218
1743370309828,17:31:49.828,-1,-1,0,1.75311355311355,26.4608428180218
1743370309847,17:31:49.847,-1,-1,0,1.75311355311355,26.4608428180218
1743370309867,17:31:49.867,-1,-1,0,1.75311355311355,26.4608428180218
1743370309886,17:31:49.886,-1,-1,0,1.75164835164835,26.4608428180218
1743370309906,17:31:49.906,-1,-1,0,1.75164835164835,26.4608428180218
1743370309925,17:31:49.925,-1,-1,0,1.75018315018315,26.4608428180218
1743370309945,17:31:49.945,-1,-1,0,1.74871794871795,26.4608428180218
1743370309964,17:31:49.964,-1,-1,0,1.74578754578755,26.4608428180218
1743370309984,17:31:49.984,-1,-1,0,1.74432234432234,26.4608428180218
1743370310003,17:31:50.003,-1,-1,0,1.74285714285714,26.4608428180218
1743370310023,17:31:50.023,-1,-1,0,1.74139194139194,33.351067751646
1743370310042,17:31:50.042,-1,-1,0,1.73992673992674,33.351067751646
1743370310062,17:31:50.062,-1,-1,0,1.73846153846154,33.351067751646
1743370310081,17:31:50.081,-1,-1,0,1.73699633699634,33.351067751646
1743370310101,17:31:50.101,-1,-1,0,1.73553113553114,33.351067751646
1743370310120,17:31:50.120,-1,-1,0,1.73406593406593,33.351067751646
1743370310140,17:31:50.140,-1,-1,0,1.73406593406593,33.351067751646
1743370310159,17:31:50.159,-1,-1,0,1.73260073260073,33.351067751646
1743370310179,17:31:50.179,-1,-1,0,1.73113553113553,33.351067751646
1743370310198,17:31:50.198,-1,-1,0,1.73113553113553,33.351067751646
1743370310218,17:31:50.218,-1,-1,0,1.72820512820513,33.351067751646
1743370310237,17:31:50.237,-1,-1,0,1.72673992673993,33.351067751646
1743370310257,17:31:50.257,-1,-1,0,1.72527472527472,33.351067751646
1743370310276,17:31:50.276,-1,-1,0,1.72234432234432,33.351067751646
1743370310296,17:31:50.296,-1,-1,0,1.72087912087912,33.351067751646
1743370310315,17:31:50.315,-1,-1,0,1.71794871794872,33.351067751646
1743370310335,17:31:50.335,-1,-1,0,1.71501831501831,33.351067751646
1743370310354,17:31:50.354,-1,-1,0,1.71355311355311,33.351067751646
1743370310374,17:31:50.374,-1,-1,0,1.70915750915751,33.351067751646
1743370310393,17:31:50.393,-1,-1,0,1.70622710622711,33.351067751646
1743370310413,17:31:50.413,-1,-1,0,1.7018315018315,33.351067751646
1743370310432,17:31:50.432,-1,-1,0,1.6974358974359,33.351067751646
1743370310452,17:31:50.452,-1,-1,0,1.69450549450549,33.351067751646
1743370310471,17:31:50.471,-1,-1,0,1.69010989010989,33.351067751646
1743370310491,17:31:50.491,-1,-1,0,1.68717948717949,33.351067751646
1743370310510,17:31:50.510,-1,-1,0,1.68278388278388,33.351067751646
1743370310530,17:31:50.530,-1,-1,0,1.68131868131868,33.351067751646
1743370310549,17:31:50.549,-1,-1,0,1.67985347985348,33.351067751646
1743370310569,17:31:50.569,-1,-1,0,1.67838827838828,33.351067751646
1743370310588,17:31:50.588,-1,-1,0,1.67545787545788,33.351067751646
1743370310608,17:31:50.608,-1,-1,0,1.67252747252747,33.351067751646
1743370310627,17:31:50.627,-1,-1,45.4212454212454,1.67106227106227,33.351067751646
1743370310647,17:31:50.647,-1,-1,534.065934065934,1.67106227106227,33.351067751646
1743370310666,17:31:50.666,-1,-1,1077.65567765568,1.66959706959707,33.351067751646
1743370310686,17:31:50.686,-1,-1,1491.57509157509,1.66813186813187,33.351067751646
1743370310705,17:31:50.705,-1,-1,1749.45054945055,1.66666666666667,33.351067751646
1743370310725,17:31:50.725,-1,-1,1868.13186813187,1.66520146520147,33.351067751646
1743370310744,17:31:50.744,-1,-1,1904.0293040293,1.66520146520147,33.351067751646
1743370310764,17:31:50.764,-1,-1,1911.35531135531,1.66373626373626,33.351067751646
1743370310783,17:31:50.783,-1,-1,1879.12087912088,1.66373626373626,33.351067751646
1743370310803,17:31:50.803,-1,-1,1826.37362637363,1.66227106227106,33.351067751646
1743370310822,17:31:50.822,-1,-1,1760.43956043956,1.66080586080586,33.351067751646
1743370310842,17:31:50.842,-1,-1,1676.19047619048,1.66080586080586,33.351067751646
1743370310861,17:31:50.861,-1,-1,1580.95238095238,1.65934065934066,33.351067751646
1743370310881,17:31:50.881,-1,-1,1492.30769230769,1.65934065934066,33.351067751646
1743370310900,17:31:50.900,-1,-1,1424.17582417582,1.65787545787546,33.351067751646
1743370310920,17:31:50.920,-1,-1,1383.15018315018,1.65641025641026,33.351067751646
1743370310939,17:31:50.939,-1,-1,1353.11355311355,1.65494505494505,33.351067751646
1743370310959,17:31:50.959,-1,-1,1339.19413919414,1.65201465201465,33.351067751646
1743370310978,17:31:50.978,-1,-1,1333.33333333333,1.64908424908425,33.351067751646
1743370310998,17:31:50.998,-1,-1,1308.42490842491,1.64908424908425,33.351067751646
1743370311017,17:31:51.017,-1,-1,1291.57509157509,1.64761904761905,33.3610745924525
1743370311037,17:31:51.037,-1,-1,1272.52747252747,1.64468864468864,33.3610745924525
1743370311056,17:31:51.056,-1,-1,1246.88644688645,1.64322344322344,33.3610745924525
1743370311076,17:31:51.076,-1,-1,1214.65201465201,1.64175824175824,33.3610745924525
1743370311095,17:31:51.095,-1,-1,1190.47619047619,1.63882783882784,33.3610745924525
1743370311115,17:31:51.115,-1,-1,1170.69597069597,1.63736263736264,33.3610745924525
1743370311134,17:31:51.134,-1,-1,1148.71794871795,1.63589743589744,33.3610745924525
1743370311154,17:31:51.154,-1,-1,1117.94871794872,1.63443223443223,33.3610745924525
1743370311173,17:31:51.173,-1,-1,1100.3663003663,1.63150183150183,33.3610745924525
1743370311193,17:31:51.193,-1,-1,1097.4358974359,1.63003663003663,33.3610745924525
1743370311212,17:31:51.212,-1,-1,1082.78388278388,1.62857142857143,33.3610745924525
1743370311232,17:31:51.232,-1,-1,1052.01465201465,1.62710622710623,33.3610745924525
1743370311251,17:31:51.251,-1,-1,1031.50183150183,1.62710622710623,33.3610745924525
1743370311271,17:31:51.271,-1,-1,1005.12820512821,1.62564102564102,33.3610745924525
1743370311290,17:31:51.290,-1,-1,1000,1.62417582417582,33.3610745924525
1743370311310,17:31:51.310,-1,-1,1005.86080586081,1.61978021978022,33.3610745924525
1743370311329,17:31:51.329,-1,-1,1013.91941391941,1.61538461538462,33.3610745924525
1743370311349,17:31:51.349,-1,-1,1073.26007326007,1.61098901098901,33.3610745924525
1743370311368,17:31:51.368,-1,-1,1198.5347985348,1.60805860805861,33.3610745924525
1743370311388,17:31:51.388,-1,-1,1381.68498168498,1.60512820512821,33.3610745924525
1743370311407,17:31:51.407,-1,-1,1553.11355311355,1.6021978021978,33.3610745924525
1743370311427,17:31:51.427,-1,-1,1684.98168498168,1.5992673992674,33.3610745924525
1743370311446,17:31:51.446,-1,-1,1767.03296703297,1.5978021978022,33.3610745924525
1743370311466,17:31:51.466,-1,-1,1802.9304029304,1.596336996337,33.3610745924525
1743370311485,17:31:51.485,-1,-1,1805.12820512821,1.59487179487179,33.3610745924525
1743370311505,17:31:51.505,-1,-1,1783.88278388278,1.59340659340659,33.3610745924525
1743370311524,17:31:51.524,-1,-1,1750.91575091575,1.59194139194139,33.3610745924525
1743370311544,17:31:51.544,-1,-1,1702.5641025641,1.59047619047619,33.3610745924525
1743370311563,17:31:51.563,-1,-1,1641.02564102564,1.58901098901099,33.3610745924525
1743370311583,17:31:51.583,-1,-1,1560.43956043956,1.58754578754579,33.3610745924525
1743370311602,17:31:51.602,-1,-1,1465.20146520146,1.58608058608059,33.3610745924525
1743370311622,17:31:51.622,-1,-1,1378.75457875458,1.58461538461538,33.3610745924525
1743370311641,17:31:51.641,-1,-1,1320.14652014652,1.58461538461538,33.3610745924525
1743370311661,17:31:51.661,-1,-1,1271.79487179487,1.58168498168498,33.3610745924525
1743370311680,17:31:51.680,-1,-1,1249.08424908425,1.58168498168498,33.3610745924525
1743370311700,17:31:51.700,-1,-1,1258.60805860806,1.58021978021978,33.3610745924525
1743370311719,17:31:51.719,-1,-1,1270.32967032967,1.57875457875458,33.3610745924525
1743370311739,17:31:51.739,-1,-1,1268.13186813187,1.57728937728938,33.3610745924525
1743370311758,17:31:51.758,-1,-1,1246.88644688645,1.57582417582418,33.3610745924525
1743370311778,17:31:51.778,-1,-1,1219.04761904762,1.57435897435897,33.3610745924525
1743370311797,17:31:51.797,-1,-1,1191.94139194139,1.57435897435897,33.3610745924525
1743370311817,17:31:51.817,-1,-1,1158.97435897436,1.57289377289377,33.3610745924525
1743370311836,17:31:51.836,-1,-1,1118.68131868132,1.57142857142857,33.3610745924525
1743370311856,17:31:51.856,-1,-1,1091.57509157509,1.56996336996337,33.3610745924525
1743370311875,17:31:51.875,-1,-1,1076.19047619048,1.56849816849817,33.3610745924525
1743370311895,17:31:51.895,-1,-1,1059.34065934066,1.56703296703297,33.3610745924525
1743370311914,17:31:51.914,-1,-1,1049.81684981685,1.56556776556777,33.3610745924525
1743370311934,17:31:51.934,-1,-1,1044.68864468864,1.56410256410256,33.3610745924525
1743370311953,17:31:51.953,-1,-1,1029.30402930403,1.56410256410256,33.3610745924525
1743370311973,17:31:51.973,-1,-1,1004.3956043956,1.56117216117216,33.3610745924525
1743370311992,17:31:51.992,-1,-1,994.871794871795,1.56117216117216,33.3610745924525
1743370312012,17:31:52.012,-1,-1,988.278388278388,1.55970695970696,33.3660780041246
1743370312031,17:31:52.031,-1,-1,992.673992673993,1.55970695970696,33.3660780041246
1743370312051,17:31:52.051,-1,-1,990.47619047619,1.55824175824176,33.3660780041246
1743370312070,17:31:52.070,-1,-1,977.289377289377,1.55677655677656,33.3660780041246
1743370312090,17:31:52.090,-1,-1,967.765567765568,1.55677655677656,33.3660780041246
1743370312109,17:31:52.109,-1,-1,983.150183150183,1.55531135531136,33.3660780041246
1743370312129,17:31:52.129,-1,-1,1054.94505494505,1.55384615384615,33.3660780041246
1743370312148,17:31:52.148,-1,-1,1194.87179487179,1.55384615384615,33.3660780041246
1743370312168,17:31:52.168,-1,-1,1359.70695970696,1.55384615384615,33.3660780041246
1743370312187,17:31:52.187,-1,-1,1504.0293040293,1.55384615384615,33.3660780041246
1743370312207,17:31:52.207,-1,-1,1594.87179487179,1.55384615384615,33.3660780041246
1743370312226,17:31:52.226,-1,-1,1646.88644688645,1.55384615384615,33.3660780041246
1743370312246,17:31:52.246,-1,-1,1654.21245421245,1.55384615384615,33.3660780041246
1743370312265,17:31:52.265,-1,-1,1633.69963369963,1.55238095238095,33.3660780041246
1743370312285,17:31:52.285,-1,-1,1605.86080586081,1.55238095238095,33.3660780041246
1743370312304,17:31:52.304,-1,-1,1567.03296703297,1.55091575091575,33.3660780041246
1743370312324,17:31:52.324,-1,-1,1502.5641025641,1.54945054945055,33.3660780041246
1743370312343,17:31:52.343,-1,-1,1436.63003663004,1.54945054945055,33.3660780041246
1743370312363,17:31:52.363,-1,-1,1375.82417582418,1.54945054945055,33.3660780041246
1743370312382,17:31:52.382,-1,-1,1321.61172161172,1.54945054945055,33.3660780041246
1743370312402,17:31:52.402,-1,-1,1282.05128205128,1.54945054945055,33.3660780041246
1743370312421,17:31:52.421,-1,-1,1261.53846153846,1.55091575091575,33.3660780041246
1743370312441,17:31:52.441,-1,-1,1265.20146520147,1.55238095238095,33.3660780041246
1743370312460,17:31:52.460,-1,-1,1268.86446886447,1.55384615384615,33.3660780041246
1743370312480,17:31:52.480,-1,-1,1267.39926739927,1.55531135531136,33.3660780041246
1743370312499,17:31:52.499,-1,-1,1260.80586080586,1.55531135531136,33.3660780041246
1743370312519,17:31:52.519,-1,-1,1246.15384615385,1.55384615384615,33.3660780041246
1743370312538,17:31:52.538,-1,-1,1241.02564102564,1.55531135531136,33.3660780041246
1743370312558,17:31:52.558,-1,-1,1226.37362637363,1.55384615384615,33.3660780041246
1743370312577,17:31:52.577,-1,-1,1193.40659340659,1.55384615384615,33.3660780041246
1743370312597,17:31:52.597,-1,-1,1152.38095238095,1.55238095238095,33.3660780041246
1743370312616,17:31:52.616,-1,-1,1117.21611721612,1.55238095238095,33.3660780041246
1743370312636,17:31:52.636,-1,-1,1103.2967032967,1.55238095238095,33.3660780041246
1743370312655,17:31:52.655,-1,-1,1085.71428571429,1.55238095238095,33.3660780041246
1743370312675,17:31:52.675,-1,-1,1063.00366300366,1.55238095238095,33.3660780041246
1743370312694,17:31:52.694,-1,-1,1067.39926739927,1.55238095238095,33.3660780041246
1743370312714,17:31:52.714,-1,-1,1079.12087912088,1.55091575091575,33.3660780041246
1743370312733,17:31:52.733,-1,-1,1064.46886446886,1.54945054945055,33.3660780041246
1743370312753,17:31:52.753,-1,-1,1054.21245421245,1.54798534798535,33.3660780041246
1743370312772,17:31:52.772,-1,-1,1046.15384615385,1.54798534798535,33.3660780041246
1743370312792,17:31:52.792,-1,-1,1031.50183150183,1.54505494505494,33.3660780041246
1743370312811,17:31:52.811,-1,-1,1049.08424908425,1.54212454212454,33.3660780041246
1743370312831,17:31:52.831,-1,-1,1128.93772893773,1.54065934065934,33.3660780041246
1743370312850,17:31:52.850,-1,-1,1259.34065934066,1.53919413919414,33.3660780041246
1743370312870,17:31:52.870,-1,-1,1406.59340659341,1.53626373626374,33.3660780041246
1743370312889,17:31:52.889,-1,-1,1518.68131868132,1.53479853479853,33.3660780041246
1743370312909,17:31:52.909,-1,-1,1602.1978021978,1.53333333333333,33.3660780041246
1743370312928,17:31:52.928,-1,-1,1649.08424908425,1.53333333333333,33.3660780041246
1743370312948,17:31:52.948,-1,-1,1655.67765567766,1.53040293040293,33.3660780041246
1743370312967,17:31:52.967,-1,-1,1623.44322344322,1.53040293040293,33.3660780041246
1743370312987,17:31:52.987,-1,-1,1577.28937728938,1.53040293040293,33.3660780041246
1743370313006,17:31:53.006,-1,-1,1547.25274725275,1.52893772893773,33.3760848100064
1743370313026,17:31:53.026,-1,-1,1510.62271062271,1.52747252747253,33.3760848100064
1743370313045,17:31:53.045,-1,-1,1456.41025641026,1.52600732600733,33.3760848100064
1743370313065,17:31:53.065,-1,-1,1387.54578754579,1.52600732600733,33.3760848100064
1743370313084,17:31:53.084,-1,-1,1318.68131868132,1.52600732600733,33.3760848100064
1743370313104,17:31:53.104,-1,-1,1279.12087912088,1.52600732600733,33.3760848100064
1743370313123,17:31:53.123,-1,-1,1266.66666666667,1.52454212454212,33.3760848100064
1743370313143,17:31:53.143,-1,-1,1258.60805860806,1.52454212454212,33.3760848100064
1743370313162,17:31:53.162,-1,-1,1258.60805860806,1.52307692307692,33.3760848100064
1743370313182,17:31:53.182,-1,-1,1260.80586080586,1.52307692307692,33.3760848100064
1743370313201,17:31:53.201,-1,-1,1265.93406593407,1.52307692307692,33.3760848100064
1743370313221,17:31:53.221,-1,-1,1269.59706959707,1.52161172161172,33.3760848100064
1743370313240,17:31:53.240,-1,-1,1269.59706959707,1.52161172161172,33.3760848100064
1743370313260,17:31:53.260,-1,-1,1249.08424908425,1.52161172161172,33.3760848100064
1743370313279,17:31:53.279,-1,-1,1216.84981684982,1.52014652014652,33.3760848100064
1743370313299,17:31:53.299,-1,-1,1183.88278388278,1.52014652014652,33.3760848100064
1743370313318,17:31:53.318,-1,-1,1151.64835164835,1.52014652014652,33.3760848100064
1743370313338,17:31:53.338,-1,-1,1134.79853479853,1.52014652014652,33.3760848100064
1743370313357,17:31:53.357,-1,-1,1120.87912087912,1.52014652014652,33.3760848100064
1743370313377,17:31:53.377,-1,-1,1106.22710622711,1.52014652014652,33.3760848100064
1743370313396,17:31:53.396,-1,-1,1093.77289377289,1.52161172161172,33.3760848100064
1743370313416,17:31:53.416,-1,-1,1075.45787545788,1.52307692307692,33.3760848100064
1743370313435,17:31:53.435,-1,-1,1063.73626373626,1.52454212454212,33.3760848100064
1743370313455,17:31:53.455,-1,-1,1075.45787545788,1.52454212454212,33.3760848100064
1743370313474,17:31:53.474,-1,-1,1083.51648351648,1.52454212454212,33.3760848100064
1743370313494,17:31:53.494,-1,-1,1079.12087912088,1.52600732600733,33.3760848100064
1743370313513,17:31:53.513,-1,-1,1079.85347985348,1.52600732600733,33.3760848100064
1743370313533,17:31:53.533,-1,-1,1085.71428571429,1.52600732600733,33.3760848100064
1743370313552,17:31:53.552,-1,-1,1136.99633699634,1.52600732600733,33.3760848100064
1743370313572,17:31:53.572,-1,-1,1247.61904761905,1.52600732600733,33.3760848100064
1743370313591,17:31:53.591,-1,-1,1382.41758241758,1.52454212454212,33.3760848100064
1743370313611,17:31:53.611,-1,-1,1527.47252747253,1.52454212454212,33.3760848100064
1743370313630,17:31:53.630,-1,-1,1649.81684981685,1.52454212454212,33.3760848100064
1743370313650,17:31:53.650,-1,-1,1735.53113553114,1.52307692307692,33.3760848100064
1743370313669,17:31:53.669,-1,-1,1795.6043956044,1.52161172161172,33.3760848100064
1743370313689,17:31:53.689,-1,-1,1825.64102564103,1.52161172161172,33.3760848100064
1743370313708,17:31:53.708,-1,-1,1815.38461538462,1.52014652014652,33.3760848100064
1743370313728,17:31:53.728,-1,-1,1783.15018315018,1.51868131868132,33.3760848100064
1743370313747,17:31:53.747,-1,-1,1756.04395604396,1.51868131868132,33.3760848100064
1743370313767,17:31:53.767,-1,-1,1715.01831501831,1.51721611721612,33.3760848100064
1743370313786,17:31:53.786,-1,-1,1663.00366300366,1.51721611721612,33.3760848100064
1743370313806,17:31:53.806,-1,-1,1604.3956043956,1.51721611721612,33.3760848100064
1743370313825,17:31:53.825,-1,-1,1537.72893772894,1.51575091575092,33.3760848100064
1743370313845,17:31:53.845,-1,-1,1486.44688644689,1.51428571428571,33.3760848100064
1743370313864,17:31:53.864,-1,-1,1449.81684981685,1.51428571428571,33.3760848100064
1743370313884,17:31:53.884,-1,-1,1430.76923076923,1.51282051282051,33.3760848100064
1743370313903,17:31:53.903,-1,-1,1410.98901098901,1.51282051282051,33.3760848100064
1743370313923,17:31:53.923,-1,-1,1409.52380952381,1.51135531135531,33.3760848100064
1743370313942,17:31:53.942,-1,-1,1413.18681318681,1.51135531135531,33.3760848100064
1743370313962,17:31:53.962,-1,-1,1405.86080586081,1.51135531135531,33.3760848100064
1743370313981,17:31:53.981,-1,-1,1389.74358974359,1.50989010989011,33.3760848100064
1743370314001,17:31:54.001,-1,-1,1363.36996336996,1.50842490842491,33.3760848100064
1743370314020,17:31:54.020,-1,-1,1319.41391941392,1.50842490842491,33.3760848100064
1743370314040,17:31:54.040,-1,-1,1293.04029304029,1.50695970695971,33.3760848100064
1743370314059,17:31:54.059,-1,-1,1268.86446886447,1.50549450549451,33.3760848100064
1743370314079,17:31:54.079,-1,-1,1243.95604395604,1.50549450549451,33.3760848100064
1743370314098,17:31:54.098,-1,-1,1220.51282051282,1.50549450549451,33.3760848100064
1743370314118,17:31:54.118,-1,-1,1213.18681318681,1.50549450549451,33.3760848100064
1743370314137,17:31:54.137,-1,-1,1202.1978021978,1.50549450549451,33.3760848100064
1743370314157,17:31:54.157,-1,-1,1191.94139194139,1.50549450549451,33.3760848100064
1743370314176,17:31:54.176,-1,-1,1172.89377289377,1.50695970695971,33.3760848100064
1743370314196,17:31:54.196,-1,-1,1156.04395604396,1.50842490842491,33.3760848100064
1743370314215,17:31:54.215,-1,-1,1163.36996336996,1.50989010989011,33.3760848100064
1743370314235,17:31:54.235,-1,-1,1165.56776556777,1.51135531135531,33.3760848100064
1743370314254,17:31:54.254,-1,-1,1162.63736263736,1.51135531135531,33.3760848100064
1743370314274,17:31:54.274,-1,-1,1151.64835164835,1.51282051282051,33.3760848100064
1743370314293,17:31:54.293,-1,-1,1139.19413919414,1.51282051282051,33.3760848100064
1743370314313,17:31:54.313,-1,-1,1119.41391941392,1.51282051282051,33.3760848100064
1743370314332,17:31:54.332,-1,-1,1104.7619047619,1.51282051282051,33.3760848100064
1743370314352,17:31:54.352,-1,-1,1137.72893772894,1.51282051282051,33.3760848100064
1743370314371,17:31:54.371,-1,-1,1244.68864468864,1.51282051282051,33.3760848100064
1743370314391,17:31:54.391,-1,-1,1405.86080586081,1.51282051282051,33.3760848100064
1743370314410,17:31:54.410,-1,-1,1592.67399267399,1.51282051282051,33.3760848100064
1743370314430,17:31:54.430,-1,-1,1758.97435897436,1.51282051282051,33.3760848100064
1743370314449,17:31:54.449,-1,-1,1863.00366300366,1.51282051282051,33.3760848100064
1743370314469,17:31:54.469,-1,-1,1912.82051282051,1.51282051282051,33.3760848100064
1743370314488,17:31:54.488,-1,-1,1942.12454212454,1.51135531135531,33.3760848100064
1743370314508,17:31:54.508,-1,-1,1954.57875457875,1.50989010989011,33.3760848100064
1743370314527,17:31:54.527,-1,-1,1945.78754578755,1.50842490842491,33.3760848100064
1743370314547,17:31:54.547,-1,-1,1933.33333333333,1.50842490842491,33.3760848100064
1743370314566,17:31:54.566,-1,-1,1899.6336996337,1.50695970695971,33.3760848100064
1743370314586,17:31:54.586,-1,-1,1864.46886446886,1.50695970695971,33.3760848100064
1743370314605,17:31:54.605,-1,-1,1804.3956043956,1.50549450549451,33.3760848100064
1743370314625,17:31:54.625,-1,-1,1722.34432234432,1.50549450549451,33.3760848100064
1743370314644,17:31:54.644,-1,-1,1647.61904761905,1.5040293040293,33.3760848100064
1743370314664,17:31:54.664,-1,-1,1597.0695970696,1.5025641025641,33.3760848100064
1743370314683,17:31:54.683,-1,-1,1558.24175824176,1.5025641025641,33.3760848100064
1743370314703,17:31:54.703,-1,-1,1528.93772893773,1.5025641025641,33.3760848100064
1743370314722,17:31:54.722,-1,-1,1509.89010989011,1.5010989010989,33.3760848100064
1743370314742,17:31:54.742,-1,-1,1502.5641025641,1.5010989010989,33.3760848100064
1743370314761,17:31:54.761,-1,-1,1498.1684981685,1.5010989010989,33.3760848100064
1743370314781,17:31:54.781,-1,-1,1465.93406593407,1.5010989010989,33.3760848100064
1743370314800,17:31:54.800,-1,-1,1424.17582417582,1.5010989010989,33.3760848100064
1743370314820,17:31:54.820,-1,-1,1391.20879120879,1.5010989010989,33.3760848100064
1743370314839,17:31:54.839,-1,-1,1360.43956043956,1.5010989010989,33.3760848100064
1743370314859,17:31:54.859,-1,-1,1328.20512820513,1.5010989010989,33.3760848100064
1743370314878,17:31:54.878,-1,-1,1298.1684981685,1.5010989010989,33.3760848100064
1743370314898,17:31:54.898,-1,-1,1271.06227106227,1.5010989010989,33.3760848100064
1743370314917,17:31:54.917,-1,-1,1246.88644688645,1.5010989010989,33.3760848100064
1743370314937,17:31:54.937,-1,-1,1221.97802197802,1.4996336996337,33.3760848100064
1743370314956,17:31:54.956,-1,-1,1197.8021978022,1.4996336996337,33.3760848100064
1743370314976,17:31:54.976,-1,-1,1191.94139194139,1.4981684981685,33.3760848100064
1743370314995,17:31:54.995,-1,-1,1173.62637362637,1.4967032967033,33.396098351921
1743370315015,17:31:55.015,-1,-1,1162.63736263736,1.49523809523809,33.396098351921
1743370315034,17:31:55.034,-1,-1,1158.24175824176,1.49377289377289,33.396098351921
1743370315054,17:31:55.054,-1,-1,1150.91575091575,1.49377289377289,33.396098351921
1743370315073,17:31:55.073,-1,-1,1147.25274725275,1.49523809523809,33.396098351921
1743370315093,17:31:55.093,-1,-1,1147.25274725275,1.4981684981685,33.396098351921
1743370315112,17:31:55.112,-1,-1,1139.92673992674,1.5025641025641,33.396098351921
1743370315132,17:31:55.132,-1,-1,1118.68131868132,1.50842490842491,33.396098351921
1743370315151,17:31:55.151,-1,-1,1109.15750915751,1.51721611721612,33.396098351921
1743370315171,17:31:55.171,-1,-1,1104.0293040293,1.52893772893773,33.396098351921
1743370315190,17:31:55.190,-1,-1,1108.42490842491,1.54798534798535,33.396098351921
1743370315210,17:31:55.210,-1,-1,1122.34432234432,1.55677655677656,33.396098351921
1743370315229,17:31:55.229,-1,-1,1164.10256410256,1.56849816849817,33.396098351921
1743370315249,17:31:55.249,-1,-1,1272.52747252747,1.58021978021978,33.396098351921
1743370315268,17:31:55.268,-1,-1,1452.01465201465,1.59194139194139,33.396098351921
1743370315288,17:31:55.288,-1,-1,1650.54945054945,1.603663003663,33.396098351921
1743370315307,17:31:55.307,-1,-1,1827.83882783883,1.61684981684982,33.396098351921
1743370315327,17:31:55.327,-1,-1,1968.49816849817,1.62857142857143,33.396098351921
1743370315346,17:31:55.346,-1,-1,2057.14285714286,1.63882783882784,33.396098351921
1743370315366,17:31:55.366,-1,-1,2098.9010989011,1.64761904761905,33.396098351921
1743370315385,17:31:55.385,-1,-1,2109.15750915751,1.65787545787546,33.396098351921
1743370315405,17:31:55.405,-1,-1,2095.23809523809,1.66227106227106,33.396098351921
1743370315424,17:31:55.424,-1,-1,2046.88644688645,1.66813186813187,33.396098351921
1743370315444,17:31:55.444,-1,-1,1997.8021978022,1.67399267399267,33.396098351921
1743370315463,17:31:55.463,-1,-1,1945.05494505494,1.67985347985348,33.396098351921
1743370315483,17:31:55.483,-1,-1,1874.72527472527,1.68278388278388,33.396098351921
1743370315502,17:31:55.502,-1,-1,1794.13919413919,1.68571428571429,33.396098351921
1743370315522,17:31:55.522,-1,-1,1707.69230769231,1.69010989010989,33.396098351921
1743370315541,17:31:55.541,-1,-1,1627.83882783883,1.6959706959707,33.396098351921
1743370315561,17:31:55.561,-1,-1,1555.31135531136,1.6959706959707,33.396098351921
1743370315580,17:31:55.580,-1,-1,1512.82051282051,1.6974358974359,33.396098351921
1743370315600,17:31:55.600,-1,-1,1506.22710622711,1.6989010989011,33.396098351921
1743370315619,17:31:55.619,-1,-1,1511.35531135531,1.6974358974359,33.396098351921
1743370315639,17:31:55.639,-1,-1,1504.7619047619,1.6959706959707,33.396098351921
1743370315658,17:31:55.658,-1,-1,1493.04029304029,1.6959706959707,33.396098351921
1743370315678,17:31:55.678,-1,-1,1459.34065934066,1.6974358974359,33.396098351921
1743370315697,17:31:55.697,-1,-1,1400,1.7032967032967,33.396098351921
1743370315717,17:31:55.717,-1,-1,1345.78754578755,1.70622710622711,33.396098351921
1743370315736,17:31:55.736,-1,-1,1307.69230769231,1.71062271062271,33.396098351921
1743370315756,17:31:55.756,-1,-1,1287.91208791209,1.71355311355311,33.396098351921
1743370315775,17:31:55.775,-1,-1,1261.53846153846,1.71062271062271,33.396098351921
1743370315795,17:31:55.795,-1,-1,1227.83882783883,1.70915750915751,33.396098351921
1743370315814,17:31:55.814,-1,-1,1200.7326007326,1.71062271062271,33.396098351921
1743370315834,17:31:55.834,-1,-1,1180.21978021978,1.71208791208791,33.396098351921
1743370315853,17:31:55.853,-1,-1,1158.24175824176,1.71208791208791,33.396098351921
1743370315873,17:31:55.873,-1,-1,1126.73992673993,1.71355311355311,33.396098351921
1743370315892,17:31:55.892,-1,-1,1101.8315018315,1.71355311355311,33.396098351921
1743370315912,17:31:55.912,-1,-1,1100.3663003663,1.71355311355311,33.396098351921
1743370315931,17:31:55.931,-1,-1,1093.04029304029,1.71501831501831,33.396098351921
1743370315951,17:31:55.951,-1,-1,1102.5641025641,1.71648351648352,33.396098351921
1743370315970,17:31:55.970,-1,-1,1117.21611721612,1.71355311355311,33.396098351921
1743370315990,17:31:55.990,-1,-1,1121.61172161172,1.71208791208791,33.4061050879536
1743370316009,17:31:56.009,-1,-1,1117.94871794872,1.71062271062271,33.4061050879536
1743370316029,17:31:56.029,-1,-1,1119.41391941392,1.70769230769231,33.4061050879536
1743370316048,17:31:56.048,-1,-1,1105.49450549451,1.70769230769231,33.4061050879536
1743370316068,17:31:56.068,-1,-1,1093.77289377289,1.70915750915751,33.4061050879536
1743370316087,17:31:56.087,-1,-1,1076.92307692308,1.71208791208791,33.4061050879536
1743370316107,17:31:56.107,-1,-1,1057.87545787546,1.71648351648352,33.4061050879536
1743370316126,17:31:56.126,-1,-1,1068.86446886447,1.72234432234432,33.4061050879536
1743370316146,17:31:56.146,-1,-1,1159.70695970696,1.72673992673993,33.4061050879536
1743370316165,17:31:56.165,-1,-1,1337.72893772894,1.72967032967033,33.4061050879536
1743370316185,17:31:56.185,-1,-1,1555.31135531136,1.73406593406593,33.4061050879536
1743370316204,17:31:56.204,-1,-1,1768.49816849817,1.73846153846154,33.4061050879536
1743370316224,17:31:56.224,-1,-1,1936.26373626374,1.74432234432234,33.4061050879536
1743370316243,17:31:56.243,-1,-1,2047.61904761905,1.74871794871795,33.4061050879536
1743370316263,17:31:56.263,-1,-1,2093.04029304029,1.75164835164835,33.4061050879536
1743370316282,17:31:56.282,-1,-1,2068.13186813187,1.75311355311355,33.4061050879536
1743370316302,17:31:56.302,-1,-1,2004.3956043956,1.75457875457875,33.4061050879536
1743370316321,17:31:56.321,-1,-1,1926.00732600733,1.76923076923077,33.4061050879536
1743370316341,17:31:56.341,-1,-1,1871.79487179487,1.77802197802198,33.4061050879536
1743370316360,17:31:56.360,-1,-1,1824.90842490842,1.78534798534799,33.4061050879536
1743370316380,17:31:56.380,-1,-1,1747.25274725275,1.78388278388278,33.4061050879536
1743370316399,17:31:56.399,-1,-1,1641.02564102564,1.78388278388278,33.4061050879536
1743370316419,17:31:56.419,-1,-1,1557.50915750916,1.78534798534799,33.4061050879536
1743370316438,17:31:56.438,-1,-1,1508.42490842491,1.78095238095238,33.4061050879536
1743370316458,17:31:56.458,-1,-1,1488.64468864469,1.77509157509158,33.4061050879536
1743370316477,17:31:56.477,-1,-1,1482.78388278388,1.76923076923077,33.4061050879536
1743370316497,17:31:56.497,-1,-1,1484.98168498168,1.76630036630037,33.4061050879536
1743370316516,17:31:56.516,-1,-1,1487.17948717949,1.75604395604396,33.4061050879536
1743370316536,17:31:56.536,-1,-1,1476.19047619048,1.74578754578755,33.4061050879536
1743370316555,17:31:56.555,-1,-1,1469.59706959707,1.73406593406593,33.4061050879536
1743370316575,17:31:56.575,-1,-1,1445.42124542125,1.72087912087912,33.4061050879536
1743370316594,17:31:56.594,-1,-1,1413.18681318681,1.70915750915751,33.4061050879536
1743370316614,17:31:56.614,-1,-1,1366.30036630037,1.6974358974359,33.4061050879536
1743370316633,17:31:56.633,-1,-1,1323.80952380952,1.68571428571429,33.4061050879536
1743370316653,17:31:56.653,-1,-1,1298.9010989011,1.67545787545788,33.4061050879536
1743370316672,17:31:56.672,-1,-1,1274.72527472527,1.66520146520147,33.4061050879536
1743370316692,17:31:56.692,-1,-1,1249.81684981685,1.65347985347985,33.4061050879536
1743370316711,17:31:56.711,-1,-1,1221.24542124542,1.64615384615385,33.4061050879536
1743370316731,17:31:56.731,-1,-1,1195.6043956044,1.63882783882784,33.4061050879536
1743370316750,17:31:56.750,-1,-1,1171.42857142857,1.63296703296703,33.4061050879536
1743370316770,17:31:56.770,-1,-1,1167.76556776557,1.62710622710623,33.4061050879536
1743370316789,17:31:56.789,-1,-1,1171.42857142857,1.62271062271062,33.4061050879536
1743370316809,17:31:56.809,-1,-1,1168.49816849817,1.61831501831502,33.4061050879536
1743370316828,17:31:56.828,-1,-1,1166.30036630037,1.61391941391941,33.4061050879536
1743370316848,17:31:56.848,-1,-1,1163.36996336996,1.61098901098901,33.4061050879536
1743370316867,17:31:56.867,79,-1,1149.45054945055,1.60659340659341,33.4061050879536
1743370316887,17:31:56.887,79,-1,1137.72893772894,1.60952380952381,33.4061050879536
1743370316906,17:31:56.906,79,-1,1150.91575091575,1.61098901098901,33.4061050879536
1743370316926,17:31:56.926,79,-1,1233.69963369963,1.60952380952381,33.4061050879536
1743370316945,17:31:56.945,79,-1,1397.0695970696,1.60805860805861,33.4061050879536
1743370316965,17:31:56.965,79,-1,1601.4652014652,1.60659340659341,33.4061050879536
1743370316984,17:31:56.984,79,-1,1811.72161172161,1.60659340659341,33.4061050879536
1743370317004,17:31:57.004,79,-1,1979.48717948718,1.60512820512821,33.4061050879536
1743370317023,17:31:57.023,79,-1,2076.92307692308,1.603663003663,33.4061050879536
1743370317043,17:31:57.043,79,-1,2102.5641025641,1.603663003663,33.4061050879536
1743370317062,17:31:57.062,79,-1,2083.51648351648,1.6021978021978,33.4061050879536
1743370317082,17:31:57.082,79,-1,2041.02564102564,1.6007326007326,33.4061050879536
1743370317101,17:31:57.101,79,-1,1987.54578754579,1.6007326007326,33.4061050879536
1743370317121,17:31:57.121,79,-1,1923.80952380952,1.5992673992674,33.4061050879536
1743370317140,17:31:57.140,79,-1,1848.35164835165,1.5978021978022,33.4061050879536
1743370317160,17:31:57.160,79,-1,1766.30036630037,1.596336996337,33.4061050879536
1743370317179,17:31:57.179,79,-1,1674.72527472527,1.59487179487179,33.4061050879536
1743370317199,17:31:57.199,79,-1,1603.663003663,1.59340659340659,33.4061050879536
1743370317218,17:31:57.218,79,-1,1543.58974358974,1.59194139194139,33.4061050879536
1743370317238,17:31:57.238,79,-1,1503.2967032967,1.59194139194139,33.4061050879536
1743370317257,17:31:57.257,79,-1,1466.66666666667,1.59047619047619,33.4061050879536
1743370317277,17:31:57.277,79,-1,1448.35164835165,1.58901098901099,33.4061050879536
1743370317296,17:31:57.296,79,-1,1446.88644688645,1.58754578754579,33.4061050879536
1743370317316,17:31:57.316,79,-1,1452.01465201465,1.58754578754579,33.4061050879536
1743370317335,17:31:57.335,79,-1,1444.68864468864,1.58608058608059,33.4061050879536
1743370317355,17:31:57.355,79,-1,1438.09523809524,1.58608058608059,33.4061050879536
1743370317374,17:31:57.374,79,-1,1423.44322344322,1.58461538461538,33.4061050879536
1743370317394,17:31:57.394,79,-1,1389.01098901099,1.58461538461538,33.4061050879536
1743370317413,17:31:57.413,79,-1,1344.32234432234,1.58461538461538,33.4061050879536
1743370317433,17:31:57.433,79,-1,1284.98168498168,1.58315018315018,33.4061050879536
1743370317452,17:31:57.452,79,-1,1232.96703296703,1.58168498168498,33.4061050879536
1743370317472,17:31:57.472,79,-1,1202.9304029304,1.58168498168498,33.4061050879536
1743370317491,17:31:57.491,79,-1,1185.34798534799,1.58168498168498,33.4061050879536
1743370317511,17:31:57.511,79,-1,1167.03296703297,1.57875457875458,33.4061050879536
1743370317530,17:31:57.530,79,-1,1146.52014652015,1.58021978021978,33.4061050879536
1743370317550,17:31:57.550,79,-1,1142.12454212454,1.57875457875458,33.4061050879536
1743370317569,17:31:57.569,79,-1,1129.67032967033,1.57728937728938,33.4061050879536
1743370317589,17:31:57.589,79,-1,1100.3663003663,1.57728937728938,33.4061050879536
1743370317608,17:31:57.608,79,-1,1068.13186813187,1.57728937728938,33.4061050879536
1743370317628,17:31:57.628,85,-1,1058.60805860806,1.57728937728938,33.4061050879536
1743370317647,17:31:57.647,85,-1,1050.54945054945,1.57728937728938,33.4061050879536
1743370317667,17:31:57.667,85,-1,1048.35164835165,1.57875457875458,33.4061050879536
1743370317686,17:31:57.686,85,-1,1103.2967032967,1.58021978021978,33.4061050879536
1743370317706,17:31:57.706,85,-1,1227.83882783883,1.58461538461538,33.4061050879536
1743370317725,17:31:57.725,85,-1,1434.43223443223,1.58754578754579,33.4061050879536
1743370317745,17:31:57.745,85,-1,1682.05128205128,1.58608058608059,33.4061050879536
1743370317764,17:31:57.764,85,-1,1905.49450549451,1.58461538461538,33.4061050879536
1743370317784,17:31:57.784,85,-1,2073.26007326007,1.58315018315018,33.4061050879536
1743370317803,17:31:57.803,85,-1,2173.62637362637,1.58315018315018,33.4061050879536
1743370317823,17:31:57.823,85,-1,2212.45421245421,1.58315018315018,33.4061050879536
1743370317843,17:31:57.842,85,-1,2210.98901098901,1.58461538461538,33.4061050879536
1743370317862,17:31:57.862,85,-1,2172.16117216117,1.58315018315018,33.4061050879536
1743370317882,17:31:57.881,85,-1,2119.41391941392,1.57728937728938,33.4061050879536
1743370317901,17:31:57.901,85,-1,2048.35164835165,1.57289377289377,33.4061050879536
1743370317921,17:31:57.920,85,-1,1964.10256410256,1.57142857142857,33.4061050879536
1743370317940,17:31:57.940,85,-1,1863.73626373626,1.57142857142857,33.4061050879536
1743370317960,17:31:57.959,85,-1,1758.24175824176,1.56996336996337,33.4061050879536
1743370317979,17:31:57.979,85,-1,1671.06227106227,1.56849816849817,33.4061050879536
1743370317999,17:31:57.999,85,-1,1607.32600732601,1.56849816849817,33.4061050879536
1743370318018,17:31:58.018,85,-1,1564.83516483516,1.56703296703297,33.4061050879536
1743370318038,17:31:58.038,85,-1,1554.57875457875,1.56703296703297,33.4061050879536
1743370318057,17:31:58.057,85,-1,1553.84615384615,1.56556776556777,33.4061050879536
1743370318077,17:31:58.077,85,-1,1547.25274725275,1.56556776556777,33.4061050879536
1743370318096,17:31:58.096,85,-1,1531.86813186813,1.56556776556777,33.4061050879536
1743370318116,17:31:58.116,85,-1,1507.69230769231,1.56703296703297,33.4061050879536
1743370318135,17:31:58.135,85,-1,1465.93406593407,1.56703296703297,33.4061050879536
1743370318155,17:31:58.155,85,-1,1421.24542124542,1.56849816849817,33.4061050879536
1743370318174,17:31:58.174,85,-1,1380.21978021978,1.56849816849817,33.4061050879536
1743370318194,17:31:58.194,85,-1,1339.19413919414,1.56849816849817,33.4061050879536
1743370318213,17:31:58.213,85,-1,1292.30769230769,1.56996336996337,33.4061050879536
1743370318233,17:31:58.233,85,-1,1243.22344322344,1.56849816849817,33.4061050879536
1743370318252,17:31:58.252,85,-1,1210.98901098901,1.56996336996337,33.4061050879536
1743370318272,17:31:58.272,85,-1,1180.95238095238,1.56996336996337,33.4061050879536
1743370318291,17:31:58.291,85,-1,1161.17216117216,1.56996336996337,33.4061050879536
1743370318311,17:31:58.311,85,-1,1150.91575091575,1.56996336996337,33.4061050879536
1743370318330,17:31:58.330,85,-1,1128.93772893773,1.57289377289377,33.4061050879536
1743370318350,17:31:58.350,85,-1,1118.68131868132,1.57435897435897,33.4061050879536
1743370318369,17:31:58.369,85,-1,1106.22710622711,1.57435897435897,33.4061050879536
1743370318389,17:31:58.389,85,-1,1075.45787545788,1.57728937728938,33.4061050879536
1743370318408,17:31:58.408,85,-1,1054.94505494505,1.57875457875458,33.4061050879536
1743370318428,17:31:58.428,79,-1,1060.07326007326,1.58021978021978,33.4061050879536
1743370318447,17:31:58.447,79,-1,1073.26007326007,1.58315018315018,33.4061050879536
1743370318467,17:31:58.467,79,-1,1072.52747252747,1.58608058608059,33.4061050879536
1743370318486,17:31:58.486,79,-1,1056.41025641026,1.59047619047619,33.4061050879536
1743370318506,17:31:58.506,79,-1,1055.67765567766,1.596336996337,33.4061050879536
1743370318525,17:31:58.525,79,-1,1056.41025641026,1.5992673992674,33.4061050879536
1743370318545,17:31:58.545,79,-1,1071.79487179487,1.603663003663,33.4061050879536
1743370318564,17:31:58.564,79,-1,1169.96336996337,1.60952380952381,33.4061050879536
1743370318584,17:31:58.584,79,-1,1380.95238095238,1.61538461538462,33.4061050879536
1743370318603,17:31:58.603,79,-1,1651.28205128205,1.62124542124542,33.4061050879536
1743370318623,17:31:58.623,79,-1,1893.77289377289,1.62417582417582,33.4061050879536
1743370318642,17:31:58.642,79,-1,2073.26007326007,1.62710622710623,33.4061050879536
1743370318662,17:31:58.662,79,-1,2180.21978021978,1.63003663003663,33.4061050879536
1743370318681,17:31:58.681,79,-1,2232.96703296703,1.63443223443223,33.4061050879536
1743370318701,17:31:58.701,79,-1,2238.09523809524,1.63736263736264,33.4061050879536
1743370318720,17:31:58.720,79,-1,2199.2673992674,1.64175824175824,33.4061050879536
1743370318740,17:31:58.740,79,-1,2139.19413919414,1.64761904761905,33.4061050879536
1743370318759,17:31:58.759,79,-1,2076.19047619048,1.65201465201465,33.4061050879536
1743370318779,17:31:58.779,79,-1,2003.663003663,1.66520146520147,33.4061050879536
1743370318798,17:31:58.798,79,-1,1915.75091575092,1.66959706959707,33.4061050879536
1743370318818,17:31:58.818,79,-1,1817.58241758242,1.67545787545788,33.4061050879536
1743370318837,17:31:58.837,79,-1,1710.62271062271,1.68278388278388,33.4061050879536
1743370318857,17:31:58.857,79,-1,1614.65201465201,1.68864468864469,33.4061050879536
1743370318876,17:31:58.876,79,-1,1532.60073260073,1.69304029304029,33.4061050879536
1743370318896,17:31:58.896,79,-1,1479.85347985348,1.7003663003663,33.4061050879536
1743370318915,17:31:58.915,79,-1,1448.35164835165,1.70622710622711,33.4061050879536
1743370318935,17:31:58.935,79,-1,1440.29304029304,1.71208791208791,33.4061050879536
1743370318954,17:31:58.954,79,-1,1431.50183150183,1.72087912087912,33.4061050879536
1743370318974,17:31:58.974,79,-1,1423.44322344322,1.72820512820513,33.4211151483469
1743370318993,17:31:58.993,79,-1,1406.59340659341,1.73553113553114,33.4211151483469
1743370319013,17:31:59.013,79,-1,1380.95238095238,1.74285714285714,33.4211151483469
1743370319032,17:31:59.032,79,-1,1338.46153846154,1.74725274725275,33.4211151483469
1743370319052,17:31:59.052,79,-1,1293.77289377289,1.75311355311355,33.4211151483469
1743370319071,17:31:59.071,79,-1,1246.88644688645,1.75897435897436,33.4211151483469
1743370319091,17:31:59.091,79,-1,1207.32600732601,1.76336996336996,33.4211151483469
1743370319110,17:31:59.110,79,-1,1175.09157509158,1.76630036630037,33.4211151483469
1743370319130,17:31:59.130,79,-1,1135.53113553114,1.77069597069597,33.4211151483469
1743370319149,17:31:59.149,79,-1,1111.35531135531,1.77655677655678,33.4211151483469
1743370319169,17:31:59.169,79,-1,1110.62271062271,1.77655677655678,33.4211151483469
1743370319188,17:31:59.188,79,-1,1106.22710622711,1.78095238095238,33.4211151483469
1743370319208,17:31:59.208,79,-1,1095.2380952381,1.78388278388278,33.4211151483469
1743370319227,17:31:59.227,79,-1,1079.12087912088,1.78681318681319,33.4211151483469
1743370319247,17:31:59.247,79,-1,1061.53846153846,1.79120879120879,33.4211151483469
1743370319266,17:31:59.266,79,-1,1051.28205128205,1.79267399267399,33.4211151483469
1743370319286,17:31:59.286,79,-1,1031.50183150183,1.79413919413919,33.4211151483469
1743370319305,17:31:59.305,75,-1,1010.98901098901,1.7985347985348,33.4211151483469
1743370319325,17:31:59.325,75,-1,990.47619047619,1.8029304029304,33.4211151483469
1743370319344,17:31:59.344,75,-1,987.545787545787,1.80732600732601,33.4211151483469
1743370319364,17:31:59.364,75,-1,983.882783882784,1.81172161172161,33.4211151483469
1743370319383,17:31:59.383,75,-1,984.615384615385,1.81465201465201,33.4211151483469
1743370319403,17:31:59.403,75,-1,975.091575091575,1.81904761904762,33.4211151483469
1743370319422,17:31:59.422,75,-1,973.626373626374,1.82197802197802,33.4211151483469
1743370319442,17:31:59.442,75,-1,1032.23443223443,1.82490842490843,33.4211151483469
1743370319461,17:31:59.461,75,-1,1181.68498168498,1.82930402930403,33.4211151483469
1743370319481,17:31:59.481,75,-1,1418.31501831502,1.83369963369963,33.4211151483469
1743370319500,17:31:59.500,75,-1,1673.99267399267,1.83956043956044,33.4211151483469
1743370319520,17:31:59.520,75,-1,1888.64468864469,1.84688644688645,33.4211151483469
1743370319539,17:31:59.539,75,-1,2046.88644688645,1.85274725274725,33.4211151483469
1743370319559,17:31:59.559,75,-1,2126.00732600733,1.85860805860806,33.4211151483469
1743370319578,17:31:59.578,75,-1,2147.25274725275,1.86593406593407,33.4211151483469
1743370319598,17:31:59.598,75,-1,2126.73992673993,1.87326007326007,33.4211151483469
1743370319617,17:31:59.617,75,-1,2072.52747252747,1.87472527472527,33.4211151483469
1743370319637,17:31:59.637,75,-1,1999.2673992674,1.88058608058608,33.4211151483469
1743370319656,17:31:59.656,75,-1,1920.14652014652,1.88791208791209,33.4211151483469
1743370319676,17:31:59.676,75,-1,1832.96703296703,1.8967032967033,33.4211151483469
1743370319695,17:31:59.695,75,-1,1731.86813186813,1.90695970695971,33.4211151483469
1743370319715,17:31:59.715,75,-1,1628.57142857143,1.91575091575092,33.4211151483469
1743370319734,17:31:59.734,75,-1,1538.46153846154,1.92600732600733,33.4211151483469
1743370319754,17:31:59.754,75,-1,1465.93406593407,1.93626373626374,33.4211151483469
1743370319773,17:31:59.773,75,-1,1419.78021978022,1.94652014652015,33.4211151483469
1743370319793,17:31:59.793,75,-1,1383.15018315018,1.95824175824176,33.4211151483469
1743370319812,17:31:59.812,75,-1,1371.42857142857,1.96996336996337,33.4211151483469
1743370319832,17:31:59.832,75,-1,1374.35897435897,1.98168498168498,33.4211151483469
1743370319851,17:31:59.851,75,-1,1369.23076923077,1.996336996337,33.4211151483469
1743370319871,17:31:59.871,75,-1,1361.17216117216,2.00952380952381,33.4211151483469
1743370319890,17:31:59.890,75,-1,1347.98534798535,2.02124542124542,33.4211151483469
1743370319910,17:31:59.910,75,-1,1327.47252747253,2.03443223443223,33.4211151483469
1743370319929,17:31:59.929,75,-1,1293.77289377289,2.04761904761905,33.4211151483469
1743370319949,17:31:59.949,75,-1,1257.87545787546,2.05934065934066,33.4211151483469
1743370319968,17:31:59.968,75,-1,1234.43223443223,2.06959706959707,33.4211151483469
1743370319988,17:31:59.988,75,-1,1201.4652014652,2.07838827838828,33.4211151483469
1743370320007,17:32:00.007,75,-1,1167.76556776557,2.08864468864469,33.4211151483469
1743370320027,17:32:00.027,75,-1,1139.19413919414,2.0989010989011,33.4211151483469
1743370320046,17:32:00.046,75,-1,1116.48351648352,2.10915750915751,33.4211151483469
1743370320066,17:32:00.066,75,-1,1086.44688644689,2.12087912087912,33.4211151483469
1743370320085,17:32:00.085,75,-1,1050.54945054945,2.12967032967033,33.4211151483469
1743370320105,17:32:00.105,75,-1,1035.16483516484,2.14139194139194,33.4211151483469
1743370320124,17:32:00.124,75,-1,1041.75824175824,2.15164835164835,33.4211151483469
1743370320144,17:32:00.144,75,-1,1050.54945054945,2.16336996336996,33.4211151483469
1743370320163,17:32:00.163,75,-1,1052.01465201465,2.17216117216117,33.4211151483469
1743370320183,17:32:00.183,75,-1,1049.81684981685,2.18095238095238,33.4211151483469
1743370320202,17:32:00.202,68,-1,1028.57142857143,2.18974358974359,33.4211151483469
1743370320222,17:32:00.222,68,-1,1021.24542124542,2.2,33.4211151483469
1743370320241,17:32:00.241,68,-1,1017.58241758242,2.21025641025641,33.4211151483469
1743370320261,17:32:00.261,68,-1,996.336996336996,2.22197802197802,33.4211151483469
1743370320280,17:32:00.280,68,-1,978.754578754579,2.23223443223443,33.4211151483469
1743370320300,17:32:00.300,68,-1,1003.663003663,2.24249084249084,33.4211151483469
1743370320319,17:32:00.319,68,-1,1121.61172161172,2.24835164835165,33.4211151483469
1743370320339,17:32:00.339,68,-1,1334.79853479853,2.25128205128205,33.4211151483469
1743370320358,17:32:00.358,68,-1,1583.15018315018,2.25274725274725,33.4211151483469
1743370320378,17:32:00.378,68,-1,1825.64102564103,2.25567765567766,33.4211151483469
1743370320397,17:32:00.397,68,-1,2021.97802197802,2.26593406593407,33.4211151483469
1743370320417,17:32:00.417,68,-1,2138.46153846154,2.27765567765568,33.4211151483469
1743370320436,17:32:00.436,68,-1,2167.03296703297,2.28205128205128,33.4211151483469
1743370320456,17:32:00.456,68,-1,2155.31135531136,2.28498168498168,33.4211151483469
1743370320475,17:32:00.475,68,-1,2112.08791208791,2.28351648351648,33.4211151483469
1743370320495,17:32:00.495,68,-1,2041.75824175824,2.28058608058608,33.4211151483469
1743370320514,17:32:00.514,68,-1,1962.63736263736,2.28498168498168,33.4211151483469
1743370320534,17:32:00.534,68,-1,1868.13186813187,2.28205128205128,33.4211151483469
1743370320553,17:32:00.553,68,-1,1768.49816849817,2.28498168498168,33.4211151483469
1743370320573,17:32:00.573,68,-1,1655.67765567766,2.28205128205128,33.4211151483469
1743370320592,17:32:00.592,68,-1,1547.98534798535,2.27326007326007,33.4211151483469
1743370320612,17:32:00.612,68,-1,1468.13186813187,2.26593406593407,33.4211151483469
1743370320631,17:32:00.631,68,-1,1427.10622710623,2.25860805860806,33.4211151483469
1743370320651,17:32:00.651,68,-1,1414.65201465201,2.25274725274725,33.4211151483469
1743370320670,17:32:00.670,68,-1,1410.25641025641,2.24542124542124,33.4211151483469
1743370320690,17:32:00.690,68,-1,1416.11721611722,2.23369963369963,33.4211151483469
1743370320709,17:32:00.709,68,-1,1416.84981684982,2.22344322344322,33.4211151483469
1743370320729,17:32:00.729,68,-1,1413.18681318681,2.21172161172161,33.4211151483469
1743370320748,17:32:00.748,68,-1,1390.47619047619,2.2029304029304,33.4211151483469
1743370320768,17:32:00.768,68,-1,1368.49816849817,2.1985347985348,33.4211151483469
1743370320787,17:32:00.787,68,-1,1332.60073260073,2.19267399267399,33.4211151483469
1743370320807,17:32:00.807,68,-1,1288.64468864469,2.18681318681319,33.4211151483469
1743370320826,17:32:00.826,68,-1,1259.34065934066,2.18095238095238,33.4211151483469
1743370320846,17:32:00.846,68,-1,1233.69963369963,2.17802197802198,33.4211151483469
1743370320865,17:32:00.865,68,-1,1201.4652014652,2.17362637362637,33.4211151483469
1743370320885,17:32:00.885,68,-1,1159.70695970696,2.16923076923077,33.4211151483469
1743370320904,17:32:00.904,68,-1,1117.94871794872,2.16483516483516,33.4211151483469
1743370320924,17:32:00.924,68,-1,1081.31868131868,2.16336996336996,33.4211151483469
1743370320943,17:32:00.943,68,-1,1056.41025641026,2.16483516483516,33.4211151483469
1743370320963,17:32:00.963,68,-1,1042.49084249084,2.16483516483516,33.4211151483469
1743370320982,17:32:00.982,67,-1,1048.35164835165,2.16776556776557,33.4211151483469
1743370321002,17:32:01.002,67,-1,1064.46886446886,2.17216117216117,33.4211151483469
1743370321021,17:32:01.021,67,-1,1061.53846153846,2.18241758241758,33.4211151483469
1743370321041,17:32:01.041,67,-1,1049.81684981685,2.2,33.4211151483469
1743370321060,17:32:01.060,67,-1,1035.89743589744,2.22197802197802,33.4211151483469
1743370321080,17:32:01.080,67,-1,1035.89743589744,2.24542124542124,33.4211151483469
1743370321099,17:32:01.099,67,-1,1032.96703296703,2.26593406593407,33.4211151483469
1743370321119,17:32:01.119,67,-1,1024.17582417582,2.28351648351648,33.4211151483469
1743370321138,17:32:01.138,67,-1,1031.50183150183,2.2996336996337,33.4211151483469
1743370321158,17:32:01.158,67,-1,1093.04029304029,2.31428571428571,33.4211151483469
1743370321177,17:32:01.177,67,-1,1249.08424908425,2.32747252747253,33.4211151483469
1743370321197,17:32:01.197,67,-1,1477.65567765568,2.33626373626374,33.4211151483469
1743370321216,17:32:01.216,67,-1,1731.13553113553,2.34798534798535,33.4211151483469
1743370321236,17:32:01.236,67,-1,1965.56776556777,2.35677655677656,33.4211151483469
1743370321255,17:32:01.255,67,-1,2128.93772893773,2.36556776556777,33.4211151483469
1743370321275,17:32:01.275,67,-1,2197.0695970696,2.37435897435897,33.4211151483469
1743370321294,17:32:01.294,67,-1,2195.6043956044,2.38315018315018,33.4211151483469
1743370321314,17:32:01.314,67,-1,2145.78754578755,2.38901098901099,33.4211151483469
1743370321333,17:32:01.333,67,-1,2063.00366300366,2.38901098901099,33.4211151483469
1743370321353,17:32:01.353,67,-1,1972.16117216117,2.39194139194139,33.4211151483469
1743370321372,17:32:01.372,67,-1,1879.85347985348,2.38901098901099,33.4211151483469
1743370321392,17:32:01.392,67,-1,1773.62637362637,2.38901098901099,33.4211151483469
1743370321411,17:32:01.411,67,-1,1663.00366300366,2.38754578754579,33.4211151483469
1743370321431,17:32:01.431,67,-1,1569.96336996337,2.38021978021978,33.4211151483469
1743370321450,17:32:01.450,67,-1,1502.5641025641,2.37875457875458,33.4211151483469
1743370321470,17:32:01.470,67,-1,1457.14285714286,2.37875457875458,33.4211151483469
1743370321489,17:32:01.489,67,-1,1435.89743589744,2.38021978021978,33.4211151483469
1743370321509,17:32:01.509,67,-1,1435.89743589744,2.38021978021978,33.4211151483469
1743370321528,17:32:01.528,67,-1,1457.14285714286,2.38168498168498,33.4211151483469
1743370321548,17:32:01.548,67,-1,1476.19047619048,2.38168498168498,33.4211151483469
1743370321567,17:32:01.567,67,-1,1480.58608058608,2.38168498168498,33.4211151483469
1743370321587,17:32:01.587,67,-1,1452.01465201465,2.38021978021978,33.4211151483469
1743370321606,17:32:01.606,67,-1,1409.52380952381,2.37435897435897,33.4211151483469
1743370321626,17:32:01.626,67,-1,1372.16117216117,2.36996336996337,33.4211151483469
1743370321645,17:32:01.645,67,-1,1339.92673992674,2.36556776556777,33.4211151483469
1743370321665,17:32:01.665,67,-1,1301.0989010989,2.34945054945055,33.4211151483469
1743370321684,17:32:01.684,67,-1,1273.99267399267,2.34065934065934,33.4211151483469
1743370321704,17:32:01.704,67,-1,1243.22344322344,2.33186813186813,33.4211151483469
1743370321723,17:32:01.723,67,-1,1216.84981684982,2.32014652014652,33.4211151483469
1743370321743,17:32:01.743,67,-1,1198.5347985348,2.31282051282051,33.4211151483469
1743370321762,17:32:01.762,77,-1,1175.82417582418,2.3040293040293,33.4211151483469
1743370321782,17:32:01.782,77,-1,1147.98534798535,2.2981684981685,33.4211151483469
1743370321801,17:32:01.801,77,-1,1118.68131868132,2.29377289377289,33.4211151483469
1743370321821,17:32:01.821,77,-1,1109.89010989011,2.28937728937729,33.4211151483469
1743370321840,17:32:01.840,77,-1,1108.42490842491,2.28498168498168,33.4211151483469
1743370321860,17:32:01.860,77,-1,1095.9706959707,2.28205128205128,33.4211151483469
1743370321879,17:32:01.879,77,-1,1093.04029304029,2.27765567765568,33.4211151483469
1743370321899,17:32:01.899,77,-1,1147.98534798535,2.27326007326007,33.4211151483469
1743370321918,17:32:01.918,77,-1,1309.15750915751,2.26886446886447,33.4211151483469
1743370321938,17:32:01.938,77,-1,1566.30036630037,2.26153846153846,33.4211151483469
1743370321957,17:32:01.957,77,-1,1849.81684981685,2.25567765567766,33.4311218261719
1743370321977,17:32:01.977,77,-1,2084.24908424908,2.25128205128205,33.4311218261719
1743370321996,17:32:01.996,77,-1,2226.37362637363,2.24688644688645,33.4311218261719
1743370322016,17:32:02.016,77,-1,2293.77289377289,2.24249084249084,33.4311218261719
1743370322035,17:32:02.035,77,-1,2288.64468864469,2.23956043956044,33.4311218261719
1743370322055,17:32:02.055,77,-1,2224.17582417582,2.23516483516484,33.4311218261719
1743370322074,17:32:02.074,77,-1,2149.45054945055,2.23223443223443,33.4311218261719
1743370322094,17:32:02.094,77,-1,2079.12087912088,2.23076923076923,33.4311218261719
1743370322113,17:32:02.113,77,-1,2005.12820512821,2.22930402930403,33.4311218261719
1743370322133,17:32:02.133,77,-1,1905.49450549451,2.22783882783883,33.4311218261719
1743370322152,17:32:02.152,77,-1,1785.34798534799,2.22783882783883,33.4311218261719
1743370322172,17:32:02.172,77,-1,1676.19047619048,2.22637362637363,33.4311218261719
1743370322191,17:32:02.191,77,-1,1597.8021978022,2.22637362637363,33.4311218261719
1743370322211,17:32:02.211,77,-1,1547.25274725275,2.22637362637363,33.4311218261719
1743370322230,17:32:02.230,77,-1,1514.28571428571,2.22637362637363,33.4311218261719
1743370322250,17:32:02.250,77,-1,1516.48351648352,2.22637362637363,33.4311218261719
1743370322269,17:32:02.269,77,-1,1531.13553113553,2.22637362637363,33.4311218261719
1743370322289,17:32:02.289,77,-1,1528.93772893773,2.22490842490842,33.4311218261719
1743370322308,17:32:02.308,77,-1,1509.15750915751,2.22637362637363,33.4311218261719
1743370322328,17:32:02.328,77,-1,1476.92307692308,2.22637362637363,33.4311218261719
1743370322347,17:32:02.347,77,-1,1422.71062271062,2.22637362637363,33.4311218261719
1743370322367,17:32:02.367,77,-1,1365.56776556777,2.22783882783883,33.4311218261719
1743370322386,17:32:02.386,77,-1,1326.73992673993,2.22783882783883,33.4311218261719
1743370322406,17:32:02.406,77,-1,1303.2967032967,2.22783882783883,33.4311218261719
1743370322425,17:32:02.425,77,-1,1274.72527472527,2.22783882783883,33.4311218261719
1743370322445,17:32:02.445,77,-1,1241.75824175824,2.22930402930403,33.4311218261719
1743370322464,17:32:02.464,77,-1,1219.78021978022,2.22930402930403,33.4311218261719
1743370322484,17:32:02.484,77,-1,1202.9304029304,2.23223443223443,33.4311218261719
1743370322503,17:32:02.503,77,-1,1183.15018315018,2.23223443223443,33.4311218261719
1743370322523,17:32:02.523,77,-1,1161.17216117216,2.23076923076923,33.4311218261719
1743370322542,17:32:02.542,77,-1,1136.26373626374,2.22930402930403,33.4311218261719
1743370322562,17:32:02.562,77,-1,1110.62271062271,2.22930402930403,33.4311218261719
1743370322581,17:32:02.581,77,-1,1087.91208791209,2.22930402930403,33.4311218261719
1743370322601,17:32:02.601,77,-1,1078.38827838828,2.22930402930403,33.4311218261719
1743370322620,17:32:02.620,77,-1,1073.99267399267,2.22930402930403,33.4311218261719
1743370322640,17:32:02.640,77,-1,1127.47252747253,2.22930402930403,33.4311218261719
1743370322659,17:32:02.659,77,-1,1282.05128205128,2.22783882783883,33.4311218261719
1743370322679,17:32:02.679,77,-1,1536.26373626374,2.22783882783883,33.4311218261719
1743370322698,17:32:02.698,77,-1,1833.69963369963,2.22783882783883,33.4311218261719
1743370322718,17:32:02.718,77,-1,2093.77289377289,2.22783882783883,33.4311218261719
1743370322737,17:32:02.737,77,-1,2278.38827838828,2.22637362637363,33.4311218261719
1743370322757,17:32:02.757,77,-1,2356.77655677656,2.22637362637363,33.4311218261719
1743370322776,17:32:02.776,77,-1,2366.30036630037,2.22490842490842,33.4311218261719
1743370322796,17:32:02.796,77,-1,2347.25274725275,2.22490842490842,33.4311218261719
1743370322815,17:32:02.815,77,-1,2282.05128205128,2.22490842490842,33.4311218261719
1743370322835,17:32:02.835,77,-1,2207.32600732601,2.22490842490842,33.4311218261719
1743370322854,17:32:02.854,77,-1,2145.05494505494,2.22344322344322,33.4311218261719
1743370322874,17:32:02.874,77,-1,2064.46886446886,2.22051282051282,33.4311218261719
1743370322893,17:32:02.893,77,-1,1950.91575091575,2.21758241758242,33.4311218261719
1743370322913,17:32:02.913,77,-1,1824.17582417582,2.21611721611722,33.4311218261719
1743370322932,17:32:02.932,77,-1,1696.7032967033,2.21611721611722,33.4311218261719
1743370322952,17:32:02.952,77,-1,1616.11721611722,2.21904761904762,33.4261184901698
1743370322971,17:32:02.971,77,-1,1580.21978021978,2.21904761904762,33.4261184901698
1743370322991,17:32:02.991,77,-1,1549.45054945055,2.21611721611722,33.4261184901698
1743370323010,17:32:03.010,77,-1,1515.01831501831,2.21758241758242,33.4261184901698
1743370323030,17:32:03.030,77,-1,1504.0293040293,2.21172161172161,33.4261184901698
1743370323049,17:32:03.049,77,-1,1488.64468864469,2.2043956043956,33.4261184901698
1743370323069,17:32:03.069,77,-1,1449.81684981685,2.1985347985348,33.4261184901698
1743370323088,17:32:03.088,77,-1,1409.52380952381,2.18974358974359,33.4261184901698
1743370323108,17:32:03.108,77,-1,1370.69597069597,2.17948717948718,33.4261184901698
1743370323127,17:32:03.127,77,-1,1325.27472527473,2.16776556776557,33.4261184901698
1743370323147,17:32:03.147,77,-1,1281.31868131868,2.15897435897436,33.4261184901698
1743370323166,17:32:03.166,77,-1,1243.95604395604,2.14578754578755,33.4261184901698
1743370323186,17:32:03.186,77,-1,1196.336996337,2.13260073260073,33.4261184901698
1743370323205,17:32:03.205,77,-1,1169.96336996337,2.12380952380952,33.4261184901698
1743370323225,17:32:03.225,77,-1,1145.78754578755,2.10622710622711,33.4261184901698
1743370323244,17:32:03.244,77,-1,1126.73992673993,2.09304029304029,33.4261184901698
1743370323264,17:32:03.264,77,-1,1110.62271062271,2.08131868131868,33.4261184901698
1743370323283,17:32:03.283,77,-1,1094.50549450549,2.06959706959707,33.4261184901698
1743370323303,17:32:03.303,77,-1,1082.05128205128,2.05934065934066,33.4261184901698
1743370323322,17:32:03.322,77,-1,1055.67765567766,2.05054945054945,33.4261184901698
1743370323342,17:32:03.342,77,-1,1029.30402930403,2.04029304029304,33.4261184901698
1743370323361,17:32:03.361,77,-1,1013.18681318681,2.03003663003663,33.4261184901698
1743370323381,17:32:03.381,77,-1,1009.52380952381,2.01978021978022,33.4261184901698
1743370323400,17:32:03.400,77,-1,1048.35164835165,2.00805860805861,33.4261184901698
1743370323420,17:32:03.420,77,-1,1188.27838827839,1.99340659340659,33.4261184901698
1743370323439,17:32:03.439,77,-1,1419.04761904762,1.98168498168498,33.4261184901698
1743370323459,17:32:03.459,77,-1,1679.12087912088,1.97142857142857,33.4261184901698
1743370323478,17:32:03.478,77,-1,1905.49450549451,1.95824175824176,33.4261184901698
1743370323498,17:32:03.498,77,-1,2060.80586080586,1.94798534798535,33.4261184901698
1743370323517,17:32:03.517,70,-1,2150.91575091575,1.93919413919414,33.4261184901698
1743370323537,17:32:03.537,70,-1,2190.47619047619,1.92747252747253,33.4261184901698
1743370323556,17:32:03.556,70,-1,2191.20879120879,1.91721611721612,33.4261184901698
1743370323576,17:32:03.576,70,-1,2166.30036630037,1.90989010989011,33.4261184901698
1743370323595,17:32:03.595,70,-1,2120.87912087912,1.9040293040293,33.4261184901698
1743370323615,17:32:03.615,70,-1,2048.35164835165,1.8981684981685,33.4261184901698
1743370323634,17:32:03.634,70,-1,1956.04395604396,1.8967032967033,33.4261184901698
1743370323654,17:32:03.654,70,-1,1849.81684981685,1.8996336996337,33.4261184901698
1743370323673,17:32:03.673,70,-1,1734.06593406593,1.90695970695971,33.4261184901698
1743370323693,17:32:03.693,70,-1,1619.78021978022,1.92014652014652,33.4261184901698
1743370323712,17:32:03.712,70,-1,1538.46153846154,1.94212454212454,33.4261184901698
1743370323732,17:32:03.732,70,-1,1487.17948717949,1.96703296703297,33.4261184901698
1743370323751,17:32:03.751,70,-1,1452.01465201465,1.99487179487179,33.4261184901698
1743370323771,17:32:03.771,70,-1,1425.64102564103,2.02271062271062,33.4261184901698
1743370323790,17:32:03.790,70,-1,1416.11721611722,2.04322344322344,33.4261184901698
1743370323810,17:32:03.810,70,-1,1397.8021978022,2.06520146520146,33.4261184901698
1743370323829,17:32:03.829,70,-1,1371.42857142857,2.07399267399267,33.4261184901698
1743370323849,17:32:03.849,70,-1,1332.60073260073,2.07692307692308,33.4261184901698
1743370323868,17:32:03.868,70,-1,1280.58608058608,2.08278388278388,33.4261184901698
1743370323888,17:32:03.888,70,-1,1219.78021978022,2.08571428571429,33.4261184901698
1743370323907,17:32:03.907,70,-1,1170.69597069597,2.08864468864469,33.4261184901698
1743370323927,17:32:03.927,70,-1,1139.92673992674,2.09010989010989,33.4261184901698
1743370323946,17:32:03.946,70,-1,1119.41391941392,2.09157509157509,33.4411284807138
1743370323966,17:32:03.966,70,-1,1094.50549450549,2.09304029304029,33.4411284807138
1743370323985,17:32:03.985,70,-1,1060.07326007326,2.09304029304029,33.4411284807138
1743370324005,17:32:04.005,70,-1,1031.50183150183,2.09304029304029,33.4411284807138
1743370324024,17:32:04.024,70,-1,1010.25641025641,2.09304029304029,33.4411284807138
1743370324044,17:32:04.044,70,-1,983.882783882784,2.09450549450549,33.4411284807138
1743370324063,17:32:04.063,70,-1,961.172161172161,2.0959706959707,33.4411284807138
1743370324083,17:32:04.083,70,-1,953.113553113553,2.0959706959707,33.4411284807138
1743370324102,17:32:04.102,70,-1,945.054945054945,2.0974358974359,33.4411284807138
1743370324122,17:32:04.122,70,-1,931.135531135531,2.0989010989011,33.4411284807138
1743370324141,17:32:04.141,70,-1,923.076923076923,2.0989010989011,33.4411284807138
1743370324161,17:32:04.161,70,-1,908.424908424908,2.0989010989011,33.4411284807138
1743370324180,17:32:04.180,70,-1,895.238095238095,2.1003663003663,33.4411284807138
1743370324200,17:32:04.200,70,-1,911.355311355311,2.1032967032967,33.4411284807138
1743370324219,17:32:04.219,70,-1,1003.663003663,2.1032967032967,33.4411284807138
1743370324239,17:32:04.239,70,-1,1178.75457875458,2.1032967032967,33.4411284807138
1743370324258,17:32:04.258,70,-1,1380.21978021978,2.1047619047619,33.4411284807138
1743370324278,17:32:04.278,70,-1,1573.62637362637,2.1047619047619,33.4411284807138
1743370324297,17:32:04.297,70,-1,1730.40293040293,2.1047619047619,33.4411284807138
1743370324317,17:32:04.317,70,-1,1828.57142857143,2.1047619047619,33.4411284807138
1743370324336,17:32:04.336,70,-1,1876.92307692308,2.1047619047619,33.4411284807138
1743370324356,17:32:04.356,70,-1,1887.91208791209,2.1032967032967,33.4411284807138
1743370324375,17:32:04.375,67,-1,1860.80586080586,2.1032967032967,33.4411284807138
1743370324395,17:32:04.395,67,-1,1820.51282051282,2.1047619047619,33.4411284807138
1743370324414,17:32:04.414,67,-1,1764.10256410256,2.1047619047619,33.4411284807138
1743370324434,17:32:04.434,67,-1,1711.35531135531,2.11062271062271,33.4411284807138
1743370324453,17:32:04.453,67,-1,1644.68864468864,2.11208791208791,33.4411284807138
1743370324473,17:32:04.473,67,-1,1547.98534798535,2.11062271062271,33.4411284807138
1743370324492,17:32:04.492,67,-1,1441.02564102564,2.11355311355311,33.4411284807138
1743370324512,17:32:04.512,67,-1,1361.90476190476,2.11501831501831,33.4411284807138
1743370324531,17:32:04.531,67,-1,1308.42490842491,2.11355311355311,33.4411284807138
1743370324551,17:32:04.551,67,-1,1260.07326007326,2.11794871794872,33.4411284807138
1743370324570,17:32:04.570,67,-1,1240.29304029304,2.11941391941392,33.4411284807138
1743370324590,17:32:04.590,67,-1,1228.57142857143,2.11794871794872,33.4411284807138
1743370324609,17:32:04.609,67,-1,1205.12820512821,2.11648351648352,33.4411284807138
1743370324629,17:32:04.629,67,-1,1186.81318681319,2.11501831501831,33.4411284807138
1743370324648,17:32:04.648,67,-1,1153.11355311355,2.11648351648352,33.4411284807138
1743370324668,17:32:04.668,67,-1,1127.47252747253,2.11501831501831,33.4411284807138
1743370324687,17:32:04.687,67,-1,1090.84249084249,2.11501831501831,33.4411284807138
1743370324707,17:32:04.707,67,-1,1054.94505494505,2.11501831501831,33.4411284807138
1743370324726,17:32:04.726,67,-1,1038.09523809524,2.11501831501831,33.4411284807138
1743370324746,17:32:04.746,67,-1,1008.79120879121,2.11501831501831,33.4411284807138
1743370324765,17:32:04.765,67,-1,986.813186813187,2.11501831501831,33.4411284807138
1743370324785,17:32:04.785,67,-1,972.161172161172,2.11355311355311,33.4411284807138
1743370324804,17:32:04.804,67,-1,944.322344322344,2.11355311355311,33.4411284807138
1743370324824,17:32:04.824,67,-1,917.948717948718,2.11062271062271,33.4411284807138
1743370324843,17:32:04.843,67,-1,902.564102564103,2.11648351648352,33.4411284807138
1743370324863,17:32:04.863,67,-1,892.307692307692,2.11648351648352,33.4411284807138
1743370324882,17:32:04.882,67,-1,902.564102564103,2.11501831501831,33.4411284807138
1743370324902,17:32:04.902,67,-1,915.018315018315,2.11501831501831,33.4411284807138
1743370324921,17:32:04.921,67,-1,909.89010989011,2.11794871794872,33.4411284807138
1743370324941,17:32:04.941,67,-1,893.772893772894,2.12087912087912,33.4361251563532
1743370324960,17:32:04.960,67,-1,875.457875457875,2.12234432234432,33.4361251563532
1743370324980,17:32:04.980,67,-1,849.81684981685,2.12234432234432,33.4361251563532
1743370324999,17:32:04.999,67,-1,824.908424908425,2.12234432234432,33.4361251563532
1743370325019,17:32:05.019,67,-1,818.315018315018,2.12234432234432,33.4361251563532
1743370325038,17:32:05.038,67,-1,841.025641025641,2.12087912087912,33.4361251563532
1743370325058,17:32:05.058,67,-1,915.750915750916,2.12234432234432,33.4361251563532
1743370325077,17:32:05.077,67,-1,1045.42124542125,2.12087912087912,33.4361251563532
1743370325097,17:32:05.097,67,-1,1215.38461538462,2.12087912087912,33.4361251563532
1743370325116,17:32:05.116,67,-1,1374.35897435897,2.12087912087912,33.4361251563532
1743370325136,17:32:05.136,67,-1,1481.31868131868,2.12087912087912,33.4361251563532
1743370325155,17:32:05.155,67,-1,1551.64835164835,2.12087912087912,33.4361251563532
1743370325175,17:32:05.175,67,-1,1575.09157509157,2.12087912087912,33.4361251563532
1743370325194,17:32:05.194,67,-1,1572.16117216117,2.12087912087912,33.4361251563532
1743370325214,17:32:05.214,70,-1,1554.57875457875,2.12087912087912,33.4361251563532
1743370325233,17:32:05.233,70,-1,1542.85714285714,2.12234432234432,33.4361251563532
1743370325253,17:32:05.253,70,-1,1517.94871794872,2.12234432234432,33.4361251563532
1743370325272,17:32:05.272,70,-1,1471.06227106227,2.12234432234432,33.4361251563532
1743370325292,17:32:05.292,70,-1,1400.7326007326,2.12234432234432,33.4361251563532
1743370325311,17:32:05.311,70,-1,1325.27472527473,2.12380952380952,33.4361251563532
1743370325331,17:32:05.331,70,-1,1256.41025641026,2.12380952380952,33.4361251563532
1743370325350,17:32:05.350,70,-1,1205.12820512821,2.12234432234432,33.4361251563532
1743370325370,17:32:05.370,70,-1,1171.42857142857,2.12234432234432,33.4361251563532
1743370325389,17:32:05.389,70,-1,1157.50915750916,2.12087912087912,33.4361251563532
1743370325409,17:32:05.409,70,-1,1145.05494505494,2.11941391941392,33.4361251563532
1743370325428,17:32:05.428,70,-1,1134.79853479853,2.11941391941392,33.4361251563532
1743370325448,17:32:05.448,70,-1,1135.53113553114,2.11941391941392,33.4361251563532
1743370325467,17:32:05.467,70,-1,1139.19413919414,2.12380952380952,33.4361251563532
1743370325487,17:32:05.487,70,-1,1138.46153846154,2.12967032967033,33.4361251563532
1743370325506,17:32:05.506,70,-1,1114.28571428571,2.12967032967033,33.4361251563532
1743370325526,17:32:05.526,70,-1,1073.26007326007,2.12967032967033,33.4361251563532
1743370325545,17:32:05.545,70,-1,1024.90842490842,2.13113553113553,33.4361251563532
1743370325565,17:32:05.565,70,-1,990.47619047619,2.13260073260073,33.4361251563532
1743370325584,17:32:05.584,70,-1,983.882783882784,2.13260073260073,33.4361251563532
1743370325604,17:32:05.604,70,-1,969.230769230769,2.13260073260073,33.4361251563532
1743370325623,17:32:05.623,70,-1,966.300366300366,2.13113553113553,33.4361251563532
1743370325643,17:32:05.643,70,-1,962.637362637363,2.12967032967033,33.4361251563532
1743370325662,17:32:05.662,70,-1,974.358974358974,2.12820512820513,33.4361251563532
1743370325682,17:32:05.682,70,-1,976.556776556777,2.11941391941392,33.4361251563532
1743370325701,17:32:05.701,70,-1,971.428571428571,2.11648351648352,33.4361251563532
1743370325721,17:32:05.721,70,-1,964.835164835165,2.11208791208791,33.4361251563532
1743370325740,17:32:05.740,70,-1,972.161172161172,2.10915750915751,33.4361251563532
1743370325760,17:32:05.760,70,-1,989.74358974359,2.10622710622711,33.4361251563532
1743370325779,17:32:05.779,70,-1,992.673992673993,2.1047619047619,33.4361251563532
1743370325799,17:32:05.799,70,-1,978.021978021978,2.1018315018315,33.4361251563532
1743370325818,17:32:05.818,70,-1,952.380952380952,2.1003663003663,33.4361251563532
1743370325838,17:32:05.838,70,-1,956.043956043956,2.1018315018315,33.4361251563532
1743370325857,17:32:05.857,70,-1,1029.30402930403,2.1032967032967,33.4361251563532
1743370325877,17:32:05.877,70,-1,1146.52014652015,2.1047619047619,33.4361251563532
1743370325896,17:32:05.896,70,-1,1259.34065934066,2.1047619047619,33.4361251563532
1743370325916,17:32:05.916,70,-1,1346.52014652015,2.11062271062271,33.4361251563532
1743370325935,17:32:05.935,70,-1,1416.84981684982,2.11501831501831,33.4461317992536
1743370325955,17:32:05.955,72,-1,1471.06227106227,2.11648351648352,33.4461317992536
1743370325974,17:32:05.974,72,-1,1470.32967032967,2.11794871794872,33.4461317992536
1743370325994,17:32:05.994,72,-1,1449.08424908425,2.11648351648352,33.4461317992536
1743370326013,17:32:06.013,72,-1,1422.71062271062,2.12087912087912,33.4461317992536
1743370326033,17:32:06.033,72,-1,1407.32600732601,2.12234432234432,33.4461317992536
1743370326052,17:32:06.052,72,-1,1395.6043956044,2.12527472527472,33.4461317992536
1743370326072,17:32:06.072,72,-1,1372.89377289377,2.11941391941392,33.4461317992536
1743370326091,17:32:06.091,72,-1,1326.00732600733,2.12380952380952,33.4461317992536
1743370326111,17:32:06.111,72,-1,1265.93406593407,2.12527472527472,33.4461317992536
1743370326130,17:32:06.130,72,-1,1210.98901098901,2.11941391941392,33.4461317992536
1743370326150,17:32:06.150,72,-1,1165.56776556777,2.11208791208791,33.4461317992536
1743370326169,17:32:06.169,72,-1,1138.46153846154,2.1003663003663,33.4461317992536
1743370326189,17:32:06.189,72,-1,1139.19413919414,2.08571428571429,33.4461317992536
1743370326208,17:32:06.208,72,-1,1147.98534798535,2.07399267399267,33.4461317992536
1743370326228,17:32:06.228,72,-1,1161.17216117216,2.06666666666667,33.4461317992536
1743370326247,17:32:06.247,72,-1,1175.09157509158,2.05787545787546,33.4461317992536
1743370326267,17:32:06.267,72,-1,1172.89377289377,2.05347985347985,33.4461317992536
1743370326286,17:32:06.286,72,-1,1145.05494505494,2.05201465201465,33.4461317992536
1743370326306,17:32:06.306,72,-1,1101.8315018315,2.05787545787546,33.4461317992536
1743370326325,17:32:06.325,72,-1,1063.00366300366,2.06520146520146,33.4461317992536
1743370326345,17:32:06.345,72,-1,1046.88644688645,2.07985347985348,33.4461317992536
1743370326364,17:32:06.364,72,-1,1041.02564102564,2.0959706959707,33.4461317992536
1743370326384,17:32:06.384,72,-1,1030.03663003663,2.10915750915751,33.4461317992536
1743370326403,17:32:06.403,72,-1,1013.18681318681,2.11794871794872,33.4461317992536
1743370326423,17:32:06.423,72,-1,1010.98901098901,2.11794871794872,33.4461317992536
1743370326442,17:32:06.442,72,-1,1005.12820512821,2.11208791208791,33.4461317992536
1743370326462,17:32:06.462,72,-1,991.208791208791,2.11501831501831,33.4461317992536
1743370326481,17:32:06.481,72,-1,983.150183150183,2.11941391941392,33.4461317992536
1743370326501,17:32:06.501,72,-1,988.278388278388,2.11208791208791,33.4461317992536
1743370326520,17:32:06.520,72,-1,986.813186813187,2.11355311355311,33.4461317992536
1743370326540,17:32:06.540,72,-1,985.347985347985,2.11355311355311,33.4461317992536
1743370326559,17:32:06.559,72,-1,980.952380952381,2.11062271062271,33.4461317992536
1743370326579,17:32:06.579,72,-1,970.695970695971,2.10769230769231,33.4461317992536
1743370326598,17:32:06.598,72,-1,958.241758241758,2.1047619047619,33.4461317992536
1743370326618,17:32:06.618,72,-1,942.857142857143,2.09450549450549,33.4461317992536
1743370326637,17:32:06.637,72,-1,950.915750915751,2.08424908424908,33.4461317992536
1743370326657,17:32:06.657,72,-1,1008.79120879121,2.06666666666667,33.4461317992536
1743370326676,17:32:06.676,72,-1,1117.21611721612,2.05787545787546,33.4461317992536
1743370326696,17:32:06.696,72,-1,1230.76923076923,2.05201465201465,33.4461317992536
1743370326715,17:32:06.715,81,-1,1329.67032967033,2.04908424908425,33.4461317992536
1743370326735,17:32:06.735,81,-1,1399.2673992674,2.04908424908425,33.4461317992536
1743370326754,17:32:06.754,81,-1,1449.81684981685,2.04908424908425,33.4461317992536
1743370326774,17:32:06.774,81,-1,1480.58608058608,2.04615384615385,33.4461317992536
1743370326793,17:32:06.793,81,-1,1497.4358974359,2.04468864468864,33.4461317992536
1743370326813,17:32:06.813,81,-1,1503.2967032967,2.04468864468864,33.4461317992536
1743370326832,17:32:06.832,81,-1,1498.9010989011,2.04322344322344,33.4461317992536
1743370326852,17:32:06.852,81,-1,1481.31868131868,2.04175824175824,33.4461317992536
1743370326871,17:32:06.871,81,-1,1454.94505494505,2.04175824175824,33.4461317992536
1743370326891,17:32:06.891,81,-1,1422.71062271062,2.04029304029304,33.4461317992536
1743370326910,17:32:06.910,81,-1,1379.48717948718,2.03882783882784,33.4461317992536
1743370326930,17:32:06.930,81,-1,1335.53113553114,2.03736263736264,33.4511351119727
1743370326949,17:32:06.949,81,-1,1306.22710622711,2.03589743589744,33.4511351119727
1743370326969,17:32:06.969,81,-1,1287.91208791209,2.03443223443223,33.4511351119727
1743370326988,17:32:06.988,81,-1,1273.99267399267,2.03150183150183,33.4511351119727
1743370327008,17:32:07.008,81,-1,1271.06227106227,2.03150183150183,33.4511351119727
1743370327027,17:32:07.027,81,-1,1256.41025641026,2.02857142857143,33.4511351119727
1743370327047,17:32:07.047,81,-1,1250.54945054945,2.02710622710623,33.4511351119727
1743370327066,17:32:07.066,81,-1,1232.96703296703,2.02564102564103,33.4511351119727
1743370327086,17:32:07.086,81,-1,1201.4652014652,2.02564102564103,33.4511351119727
1743370327105,17:32:07.105,81,-1,1157.50915750916,2.02417582417582,33.4511351119727
1743370327125,17:32:07.125,81,-1,1127.47252747253,2.02271062271062,33.4511351119727
1743370327144,17:32:07.144,81,-1,1112.82051282051,2.02271062271062,33.4511351119727
1743370327164,17:32:07.164,81,-1,1110.62271062271,2.02271062271062,33.4511351119727
1743370327183,17:32:07.183,81,-1,1109.15750915751,2.02271062271062,33.4511351119727
1743370327203,17:32:07.203,81,-1,1095.9706959707,2.02271062271062,33.4511351119727
1743370327222,17:32:07.222,81,-1,1085.71428571429,2.02124542124542,33.4511351119727
1743370327242,17:32:07.242,81,-1,1078.38827838828,2.02124542124542,33.4511351119727
1743370327261,17:32:07.261,81,-1,1078.38827838828,2.02124542124542,33.4511351119727
1743370327281,17:32:07.281,81,-1,1071.79487179487,2.01978021978022,33.4511351119727
1743370327300,17:32:07.300,81,-1,1059.34065934066,2.01978021978022,33.4511351119727
1743370327320,17:32:07.320,81,-1,1044.68864468864,2.01831501831502,33.4511351119727
1743370327339,17:32:07.339,81,-1,1020.51282051282,2.01978021978022,33.4511351119727
1743370327359,17:32:07.359,81,-1,1011.72161172161,2.01831501831502,33.4511351119727
1743370327378,17:32:07.378,81,-1,1008.79120879121,2.01831501831502,33.4511351119727
1743370327398,17:32:07.398,81,-1,1015.38461538462,2.01831501831502,33.4511351119727
1743370327417,17:32:07.417,81,-1,1025.64102564103,2.01684981684982,33.4511351119727
1743370327437,17:32:07.437,81,-1,1037.36263736264,2.01684981684982,33.4511351119727
1743370327456,17:32:07.456,81,-1,1039.56043956044,2.01684981684982,33.4511351119727
1743370327476,17:32:07.476,79,-1,1033.69963369963,2.01538461538462,33.4511351119727
1743370327495,17:32:07.495,79,-1,1030.03663003663,2.01538461538462,33.4511351119727
1743370327515,17:32:07.515,79,-1,1063.73626373626,2.01391941391941,33.4511351119727
1743370327534,17:32:07.534,79,-1,1160.43956043956,2.01391941391941,33.4511351119727
1743370327554,17:32:07.554,79,-1,1302.5641025641,2.01538461538462,33.4511351119727
1743370327573,17:32:07.573,79,-1,1458.60805860806,2.01391941391941,33.4511351119727
1743370327593,17:32:07.593,79,-1,1605.12820512821,2.01245421245421,33.4511351119727
1743370327612,17:32:07.612,79,-1,1715.75091575092,2.01098901098901,33.4511351119727
1743370327632,17:32:07.632,79,-1,1788.27838827839,2.01098901098901,33.4511351119727
1743370327651,17:32:07.651,79,-1,1821.97802197802,2.00952380952381,33.4511351119727
1743370327671,17:32:07.671,79,-1,1849.81684981685,2.01098901098901,33.4511351119727
1743370327690,17:32:07.690,79,-1,1864.46886446886,2.01098901098901,33.4511351119727
1743370327710,17:32:07.710,79,-1,1866.66666666667,2.01098901098901,33.4511351119727
1743370327729,17:32:07.729,79,-1,1863.73626373626,2.00952380952381,33.4511351119727
1743370327749,17:32:07.749,79,-1,1834.43223443223,2.00952380952381,33.4511351119727
1743370327768,17:32:07.768,79,-1,1783.15018315018,2.00952380952381,33.4511351119727
1743370327788,17:32:07.788,79,-1,1707.69230769231,2.00805860805861,33.4511351119727
1743370327807,17:32:07.807,79,-1,1641.75824175824,2.00659340659341,33.4511351119727
1743370327827,17:32:07.827,79,-1,1591.20879120879,2.00659340659341,33.4511351119727
1743370327846,17:32:07.846,79,-1,1539.19413919414,2.00659340659341,33.4511351119727
1743370327866,17:32:07.866,79,-1,1518.68131868132,2.00659340659341,33.4511351119727
1743370327885,17:32:07.885,79,-1,1515.75091575092,2.00512820512821,33.4511351119727
1743370327905,17:32:07.905,79,-1,1503.2967032967,2.00512820512821,33.4511351119727
1743370327924,17:32:07.924,79,-1,1476.19047619048,2.00512820512821,33.4461317992536
1743370327944,17:32:07.944,79,-1,1449.08424908425,2.003663003663,33.4461317992536
1743370327963,17:32:07.963,79,-1,1426.37362637363,2.003663003663,33.4461317992536
1743370327983,17:32:07.983,79,-1,1397.0695970696,2.003663003663,33.4461317992536
1743370328002,17:32:08.002,79,-1,1353.11355311355,2.003663003663,33.4461317992536
1743370328022,17:32:08.022,79,-1,1313.55311355311,2.0021978021978,33.4461317992536
1743370328041,17:32:08.041,79,-1,1288.64468864469,2.0021978021978,33.4461317992536
1743370328061,17:32:08.061,79,-1,1273.26007326007,2.0021978021978,33.4461317992536
1743370328080,17:32:08.080,79,-1,1254.21245421245,2.0007326007326,33.4461317992536
1743370328100,17:32:08.100,79,-1,1238.82783882784,2.0007326007326,33.4461317992536
1743370328119,17:32:08.119,79,-1,1214.65201465201,2.0007326007326,33.4461317992536
1743370328139,17:32:08.139,79,-1,1198.5347985348,1.9992673992674,33.4461317992536
1743370328158,17:32:08.158,79,-1,1186.08058608059,1.9992673992674,33.4461317992536
1743370328178,17:32:08.178,79,-1,1158.97435897436,1.9978021978022,33.4461317992536
1743370328197,17:32:08.197,79,-1,1143.58974358974,1.9978021978022,33.4461317992536
1743370328217,17:32:08.217,79,-1,1133.33333333333,1.9978021978022,33.4461317992536
1743370328236,17:32:08.236,79,-1,1128.20512820513,1.996336996337,33.4461317992536
1743370328256,17:32:08.256,79,-1,1114.28571428571,1.996336996337,33.4461317992536
1743370328275,17:32:08.275,79,-1,1095.9706959707,1.996336996337,33.4461317992536
1743370328295,17:32:08.295,79,-1,1088.64468864469,1.9978021978022,33.4461317992536
1743370328314,17:32:08.314,79,-1,1090.10989010989,1.9978021978022,33.4461317992536
1743370328334,17:32:08.334,79,-1,1092.30769230769,1.9978021978022,33.4461317992536
1743370328353,17:32:08.353,79,-1,1096.7032967033,1.9992673992674,33.4461317992536
1743370328373,17:32:08.373,79,-1,1093.77289377289,2.0007326007326,33.4461317992536
1743370328392,17:32:08.392,79,-1,1087.17948717949,2.003663003663,33.4461317992536
1743370328412,17:32:08.412,79,-1,1109.89010989011,2.00805860805861,33.4461317992536
1743370328431,17:32:08.431,79,-1,1171.42857142857,2.01098901098901,33.4461317992536
1743370328451,17:32:08.451,79,-1,1298.1684981685,2.01538461538462,33.4461317992536
1743370328470,17:32:08.470,79,-1,1481.31868131868,2.01684981684982,33.4461317992536
1743370328490,17:32:08.490,79,-1,1688.64468864469,2.01684981684982,33.4461317992536
1743370328509,17:32:08.509,79,-1,1880.58608058608,2.02124542124542,33.4461317992536
1743370328529,17:32:08.529,79,-1,2026.37362637363,2.02124542124542,33.4461317992536
1743370328548,17:32:08.548,79,-1,2118.68131868132,2.02271062271062,33.4461317992536
1743370328568,17:32:08.568,79,-1,2167.03296703297,2.02564102564103,33.4461317992536
1743370328587,17:32:08.587,79,-1,2175.82417582418,2.03003663003663,33.4461317992536
1743370328607,17:32:08.607,79,-1,2172.16117216117,2.03736263736264,33.4461317992536
1743370328626,17:32:08.626,79,-1,2147.25274725275,2.04468864468864,33.4461317992536
1743370328646,17:32:08.646,79,-1,2095.9706959707,2.05347985347985,33.4461317992536
1743370328665,17:32:08.665,79,-1,2029.30402930403,2.06520146520146,33.4461317992536
1743370328685,17:32:08.685,79,-1,1955.31135531136,2.07545787545788,33.4461317992536
1743370328704,17:32:08.704,79,-1,1863.73626373626,2.08424908424908,33.4461317992536
1743370328724,17:32:08.724,79,-1,1771.42857142857,2.09157509157509,33.4461317992536
1743370328743,17:32:08.743,79,-1,1692.30769230769,2.09157509157509,33.4461317992536
1743370328763,17:32:08.763,79,-1,1637.36263736264,2.0974358974359,33.4461317992536
1743370328782,17:32:08.782,79,-1,1624.90842490842,2.0989010989011,33.4461317992536
1743370328802,17:32:08.802,79,-1,1613.91941391941,2.0959706959707,33.4461317992536
1743370328821,17:32:08.821,79,-1,1601.4652014652,2.09450549450549,33.4461317992536
1743370328841,17:32:08.841,79,-1,1583.88278388278,2.09450549450549,33.4461317992536
1743370328860,17:32:08.860,79,-1,1562.63736263736,2.09450549450549,33.4461317992536
1743370328880,17:32:08.880,79,-1,1528.20512820513,2.09450549450549,33.4461317992536
1743370328899,17:32:08.899,79,-1,1486.44688644689,2.09304029304029,33.4461317992536
1743370328919,17:32:08.919,79,-1,1443.95604395604,2.09304029304029,33.4511351119727
1743370328938,17:32:08.938,79,-1,1396.336996337,2.09010989010989,33.4511351119727
1743370328958,17:32:08.958,79,-1,1339.92673992674,2.08864468864469,33.4511351119727
1743370328977,17:32:08.977,79,-1,1281.31868131868,2.08571428571429,33.4511351119727
1743370328997,17:32:08.997,79,-1,1235.89743589744,2.08424908424908,33.4511351119727
1743370329016,17:32:09.016,79,-1,1207.32600732601,2.08278388278388,33.4511351119727
1743370329036,17:32:09.036,79,-1,1182.41758241758,2.08131868131868,33.4511351119727
1743370329055,17:32:09.055,79,-1,1166.30036630037,2.08131868131868,33.4511351119727
1743370329075,17:32:09.075,79,-1,1166.30036630037,2.08131868131868,33.4511351119727
1743370329094,17:32:09.094,79,-1,1161.17216117216,2.08278388278388,33.4511351119727
1743370329114,17:32:09.114,75,-1,1142.12454212454,2.08424908424908,33.4511351119727
1743370329133,17:32:09.133,75,-1,1127.47252747253,2.08131868131868,33.4511351119727
1743370329153,17:32:09.153,75,-1,1111.35531135531,2.07985347985348,33.4511351119727
1743370329172,17:32:09.172,75,-1,1095.9706959707,2.07692307692308,33.4511351119727
1743370329192,17:32:09.192,75,-1,1082.05128205128,2.07545787545788,33.4511351119727
1743370329211,17:32:09.211,75,-1,1068.86446886447,2.07106227106227,33.4511351119727
1743370329231,17:32:09.231,75,-1,1060.07326007326,2.06813186813187,33.4511351119727
1743370329250,17:32:09.250,75,-1,1043.22344322344,2.06666666666667,33.4511351119727
1743370329270,17:32:09.270,75,-1,1016.11721611722,2.06373626373626,33.4511351119727
1743370329289,17:32:09.289,75,-1,1010.25641025641,2.06227106227106,33.4511351119727
1743370329309,17:32:09.309,75,-1,1012.45421245421,2.06373626373626,33.4511351119727
1743370329328,17:32:09.328,75,-1,1068.13186813187,2.06373626373626,33.4511351119727
1743370329348,17:32:09.348,75,-1,1200.7326007326,2.06666666666667,33.4511351119727
1743370329367,17:32:09.367,75,-1,1416.84981684982,2.06959706959707,33.4511351119727
1743370329387,17:32:09.387,75,-1,1667.39926739927,2.07106227106227,33.4511351119727
1743370329406,17:32:09.406,75,-1,1889.37728937729,2.07252747252747,33.4511351119727
1743370329426,17:32:09.426,75,-1,2050.54945054945,2.06959706959707,33.4511351119727
1743370329445,17:32:09.445,75,-1,2137.72893772894,2.06959706959707,33.4511351119727
1743370329465,17:32:09.465,75,-1,2171.42857142857,2.06813186813187,33.4511351119727
1743370329484,17:32:09.484,75,-1,2172.89377289377,2.07252747252747,33.4511351119727
1743370329504,17:32:09.504,75,-1,2146.52014652015,2.07106227106227,33.4511351119727
1743370329523,17:32:09.523,75,-1,2098.9010989011,2.06959706959707,33.4511351119727
1743370329543,17:32:09.543,75,-1,2045.42124542125,2.06666666666667,33.4511351119727
1743370329562,17:32:09.562,75,-1,1978.02197802198,2.06373626373626,33.4511351119727
1743370329582,17:32:09.582,75,-1,1886.44688644689,2.05787545787546,33.4511351119727
1743370329601,17:32:09.601,75,-1,1792.67399267399,2.05201465201465,33.4511351119727
1743370329621,17:32:09.621,75,-1,1710.62271062271,2.04761904761905,33.4511351119727
1743370329640,17:32:09.640,75,-1,1643.95604395604,2.04175824175824,33.4511351119727
1743370329660,17:32:09.660,75,-1,1602.1978021978,2.03736263736264,33.4511351119727
1743370329679,17:32:09.679,75,-1,1573.62637362637,2.03296703296703,33.4511351119727
1743370329699,17:32:09.699,75,-1,1561.90476190476,2.02857142857143,33.4511351119727
1743370329718,17:32:09.718,75,-1,1567.76556776557,2.02564102564103,33.4511351119727
1743370329738,17:32:09.738,75,-1,1573.62637362637,2.02271062271062,33.4511351119727
1743370329757,17:32:09.757,75,-1,1573.62637362637,2.02124542124542,33.4511351119727
1743370329777,17:32:09.777,75,-1,1556.04395604396,2.02417582417582,33.4511351119727
1743370329796,17:32:09.796,75,-1,1522.34432234432,2.02710622710623,33.4511351119727
1743370329816,17:32:09.816,75,-1,1463.73626373626,2.03003663003663,33.4511351119727
1743370329835,17:32:09.835,75,-1,1405.86080586081,2.03443223443223,33.4511351119727
1743370329855,17:32:09.855,75,-1,1362.63736263736,2.03882783882784,33.4511351119727
1743370329874,17:32:09.874,75,-1,1314.28571428571,2.04029304029304,33.4511351119727
1743370329894,17:32:09.894,75,-1,1282.05128205128,2.03882783882784,33.4511351119727
1743370329913,17:32:09.913,72,-1,1249.81684981685,2.04029304029304,33.4511351119727
1743370329933,17:32:09.933,72,-1,1205.86080586081,2.04322344322344,33.4511351119727
1743370329952,17:32:09.952,72,-1,1179.48717948718,2.04615384615385,33.4511351119727
1743370329972,17:32:09.972,72,-1,1167.76556776557,2.04761904761905,33.4511351119727
1743370329991,17:32:09.991,72,-1,1151.64835164835,2.04908424908425,33.4511351119727
1743370330011,17:32:10.011,72,-1,1131.13553113553,2.05054945054945,33.4511351119727
1743370330030,17:32:10.030,72,-1,1111.35531135531,2.05201465201465,33.4511351119727
1743370330050,17:32:10.050,72,-1,1091.57509157509,2.05347985347985,33.4511351119727
1743370330069,17:32:10.069,72,-1,1076.19047619048,2.05494505494505,33.4511351119727
1743370330089,17:32:10.089,72,-1,1076.19047619048,2.05641025641026,33.4511351119727
1743370330108,17:32:10.108,72,-1,1071.79487179487,2.05641025641026,33.4511351119727
1743370330128,17:32:10.128,72,-1,1133.33333333333,2.05787545787546,33.4511351119727
1743370330147,17:32:10.147,72,-1,1299.6336996337,2.05934065934066,33.4511351119727
1743370330167,17:32:10.167,72,-1,1546.52014652015,2.05934065934066,33.4511351119727
1743370330186,17:32:10.186,72,-1,1813.18681318681,2.06080586080586,33.4511351119727
1743370330206,17:32:10.206,72,-1,2042.49084249084,2.06080586080586,33.4511351119727
1743370330225,17:32:10.225,72,-1,2183.15018315018,2.06080586080586,33.4511351119727
1743370330245,17:32:10.245,72,-1,2243.22344322344,2.06520146520146,33.4511351119727
1743370330264,17:32:10.264,72,-1,2248.35164835165,2.06666666666667,33.4511351119727
1743370330284,17:32:10.284,72,-1,2190.47619047619,2.06813186813187,33.4511351119727
1743370330303,17:32:10.303,72,-1,2106.95970695971,2.06813186813187,33.4511351119727
1743370330323,17:32:10.323,72,-1,2012.45421245421,2.06813186813187,33.4511351119727
1743370330342,17:32:10.342,72,-1,1915.75091575092,2.06813186813187,33.4511351119727
1743370330362,17:32:10.362,72,-1,1822.71062271062,2.06813186813187,33.4511351119727
1743370330381,17:32:10.381,72,-1,1708.42490842491,2.06813186813187,33.4511351119727
1743370330401,17:32:10.401,72,-1,1598.5347985348,2.06813186813187,33.4511351119727
1743370330420,17:32:10.420,72,-1,1520.14652014652,2.06813186813187,33.4511351119727
1743370330440,17:32:10.440,72,-1,1473.99267399267,2.06813186813187,33.4511351119727
1743370330459,17:32:10.459,72,-1,1456.41025641026,2.06666666666667,33.4511351119727
1743370330479,17:32:10.479,72,-1,1445.42124542125,2.06666666666667,33.4511351119727
1743370330498,17:32:10.498,72,-1,1429.30402930403,2.06666666666667,33.4511351119727
1743370330518,17:32:10.518,72,-1,1413.91941391941,2.06520146520146,33.4511351119727
1743370330537,17:32:10.537,72,-1,1412.45421245421,2.06520146520146,33.4511351119727
1743370330557,17:32:10.557,72,-1,1395.6043956044,2.06520146520146,33.4511351119727
1743370330576,17:32:10.576,72,-1,1354.57875457875,2.06373626373626,33.4511351119727
1743370330596,17:32:10.596,72,-1,1310.62271062271,2.06080586080586,33.4511351119727
1743370330615,17:32:10.615,72,-1,1271.06227106227,2.05787545787546,33.4511351119727
1743370330635,17:32:10.635,72,-1,1232.23443223443,2.05641025641026,33.4511351119727
1743370330654,17:32:10.654,72,-1,1203.663003663,2.05641025641026,33.4511351119727
1743370330674,17:32:10.674,72,-1,1188.27838827839,2.05641025641026,33.4511351119727
1743370330693,17:32:10.693,72,-1,1169.23076923077,2.05641025641026,33.4511351119727
1743370330713,17:32:10.713,75,-1,1136.26373626374,2.05641025641026,33.4511351119727
1743370330732,17:32:10.732,75,-1,1114.28571428571,2.05641025641026,33.4511351119727
1743370330752,17:32:10.752,75,-1,1096.7032967033,2.05641025641026,33.4511351119727
1743370330771,17:32:10.771,75,-1,1076.19047619048,2.05494505494505,33.4511351119727
1743370330791,17:32:10.791,75,-1,1063.00366300366,2.05494505494505,33.4511351119727
1743370330810,17:32:10.810,75,-1,1045.42124542125,2.05494505494505,33.4511351119727
1743370330830,17:32:10.830,75,-1,1027.83882783883,2.05494505494505,33.4511351119727
1743370330849,17:32:10.849,75,-1,1019.78021978022,2.05494505494505,33.4511351119727
1743370330869,17:32:10.869,75,-1,1005.12820512821,2.05494505494505,33.4511351119727
1743370330888,17:32:10.888,75,-1,985.347985347985,2.05347985347985,33.4511351119727
1743370330908,17:32:10.908,75,-1,978.021978021978,2.05347985347985,33.456138418871
1743370330927,17:32:10.927,75,-1,1010.98901098901,2.05347985347985,33.456138418871
1743370330947,17:32:10.947,75,-1,1117.21611721612,2.05347985347985,33.456138418871
1743370330966,17:32:10.966,75,-1,1343.58974358974,2.05347985347985,33.456138418871
1743370330986,17:32:10.986,75,-1,1624.17582417582,2.05347985347985,33.456138418871
1743370331005,17:32:11.005,75,-1,1879.12087912088,2.05347985347985,33.456138418871
1743370331025,17:32:11.025,75,-1,2072.52747252747,2.05347985347985,33.456138418871
1743370331044,17:32:11.044,75,-1,2173.62637362637,2.05201465201465,33.456138418871
1743370331064,17:32:11.064,75,-1,2205.86080586081,2.05201465201465,33.456138418871
1743370331083,17:32:11.083,75,-1,2191.94139194139,2.05201465201465,33.456138418871
1743370331103,17:32:11.103,75,-1,2153.11355311355,2.05054945054945,33.456138418871
1743370331122,17:32:11.122,75,-1,2092.30769230769,2.05201465201465,33.456138418871
1743370331142,17:32:11.142,75,-1,2005.12820512821,2.05054945054945,33.456138418871
1743370331162,17:32:11.161,75,-1,1900.3663003663,2.05054945054945,33.456138418871
1743370331181,17:32:11.181,75,-1,1810.98901098901,2.05054945054945,33.456138418871
1743370331201,17:32:11.200,75,-1,1715.01831501831,2.04908424908425,33.456138418871
1743370331220,17:32:11.220,75,-1,1624.17582417582,2.04908424908425,33.456138418871
1743370331240,17:32:11.239,75,-1,1548.71794871795,2.04908424908425,33.456138418871
1743370331259,17:32:11.259,75,-1,1493.77289377289,2.04908424908425,33.456138418871
1743370331279,17:32:11.278,75,-1,1459.34065934066,2.04761904761905,33.456138418871
1743370331298,17:32:11.298,75,-1,1443.22344322344,2.04908424908425,33.456138418871
1743370331318,17:32:11.318,75,-1,1443.22344322344,2.04761904761905,33.456138418871
1743370331337,17:32:11.337,75,-1,1434.43223443223,2.04615384615385,33.456138418871
1743370331357,17:32:11.357,75,-1,1408.79120879121,2.04615384615385,33.456138418871
1743370331376,17:32:11.376,75,-1,1366.30036630037,2.04615384615385,33.456138418871
1743370331396,17:32:11.396,75,-1,1317.94871794872,2.04322344322344,33.456138418871
1743370331415,17:32:11.415,75,-1,1269.59706959707,2.03882783882784,33.456138418871
1743370331435,17:32:11.435,75,-1,1235.89743589744,2.03150183150183,33.456138418871
1743370331454,17:32:11.454,75,-1,1221.24542124542,2.02710622710623,33.456138418871
1743370331474,17:32:11.474,75,-1,1190.47619047619,2.02124542124542,33.456138418871
1743370331493,17:32:11.493,75,-1,1145.78754578755,2.01391941391941,33.456138418871
1743370331513,17:32:11.513,75,-1,1104.7619047619,2.00659340659341,33.456138418871
1743370331532,17:32:11.532,75,-1,1068.13186813187,1.9978021978022,33.456138418871
1743370331552,17:32:11.552,75,-1,1057.87545787546,1.98901098901099,33.456138418871
1743370331571,17:32:11.571,75,-1,1049.81684981685,1.98021978021978,33.456138418871
1743370331591,17:32:11.591,75,-1,1048.35164835165,1.97142857142857,33.456138418871
1743370331610,17:32:11.610,75,-1,1052.74725274725,1.96410256410256,33.456138418871
1743370331630,17:32:11.630,75,-1,1044.68864468864,1.95824175824176,33.456138418871
1743370331649,17:32:11.649,75,-1,1038.09523809524,1.94945054945055,33.456138418871
1743370331669,17:32:11.669,75,-1,1022.71062271062,1.94212454212454,33.456138418871
1743370331688,17:32:11.688,75,-1,991.941391941392,1.94065934065934,33.456138418871
1743370331708,17:32:11.708,75,-1,956.776556776557,1.93919413919414,33.456138418871
1743370331727,17:32:11.727,75,-1,959.70695970696,1.93333333333333,33.456138418871
1743370331747,17:32:11.747,75,-1,1029.30402930403,1.92893772893773,33.456138418871
1743370331766,17:32:11.766,75,-1,1189.01098901099,1.92454212454212,33.456138418871
1743370331786,17:32:11.786,75,-1,1402.9304029304,1.92161172161172,33.456138418871
1743370331805,17:32:11.805,75,-1,1622.71062271062,1.92014652014652,33.456138418871
1743370331825,17:32:11.825,75,-1,1816.84981684982,1.91868131868132,33.456138418871
1743370331844,17:32:11.844,75,-1,1941.39194139194,1.91868131868132,33.456138418871
1743370331864,17:32:11.864,75,-1,1994.13919413919,1.92014652014652,33.456138418871
1743370331883,17:32:11.883,75,-1,1994.87179487179,1.92161172161172,33.456138418871
1743370331903,17:32:11.903,75,-1,1968.49816849817,1.92307692307692,33.4611417199485
1743370331922,17:32:11.922,75,-1,1935.53113553114,1.92307692307692,33.4611417199485
1743370331942,17:32:11.942,75,-1,1886.44688644689,1.92307692307692,33.4611417199485
1743370331961,17:32:11.961,75,-1,1821.97802197802,1.92307692307692,33.4611417199485
1743370331981,17:32:11.981,75,-1,1755.31135531136,1.92307692307692,33.4611417199485
1743370332000,17:32:12.000,75,-1,1682.05128205128,1.92454212454212,33.4611417199485
1743370332020,17:32:12.020,75,-1,1583.15018315018,1.92454212454212,33.4611417199485
1743370332039,17:32:12.039,75,-1,1491.57509157509,1.92600732600733,33.4611417199485
1743370332059,17:32:12.059,75,-1,1422.71062271062,1.92454212454212,33.4611417199485
1743370332078,17:32:12.078,75,-1,1369.23076923077,1.92454212454212,33.4611417199485
1743370332098,17:32:12.098,75,-1,1335.53113553114,1.92454212454212,33.4611417199485
1743370332117,17:32:12.117,75,-1,1323.07692307692,1.92307692307692,33.4611417199485
1743370332137,17:32:12.137,75,-1,1309.15750915751,1.92161172161172,33.4611417199485
1743370332156,17:32:12.156,75,-1,1302.5641025641,1.92161172161172,33.4611417199485
1743370332176,17:32:12.176,75,-1,1291.57509157509,1.92014652014652,33.4611417199485
1743370332195,17:32:12.195,75,-1,1270.32967032967,1.91868131868132,33.4611417199485
1743370332215,17:32:12.215,75,-1,1246.88644688645,1.91868131868132,33.4611417199485
1743370332234,17:32:12.234,75,-1,1206.59340659341,1.91868131868132,33.4611417199485
1743370332254,17:32:12.254,75,-1,1168.49816849817,1.91868131868132,33.4611417199485
1743370332273,17:32:12.273,75,-1,1132.60073260073,1.91721611721612,33.4611417199485
1743370332293,17:32:12.293,75,-1,1085.71428571429,1.91721611721612,33.4611417199485
1743370332312,17:32:12.312,75,-1,1045.42124542125,1.91721611721612,33.4611417199485
1743370332332,17:32:12.332,75,-1,1012.45421245421,1.91575091575092,33.4611417199485
1743370332351,17:32:12.351,75,-1,988.278388278388,1.91575091575092,33.4611417199485
1743370332371,17:32:12.371,75,-1,973.626373626374,1.91575091575092,33.4611417199485
1743370332390,17:32:12.390,75,-1,972.893772893773,1.91575091575092,33.4611417199485
1743370332410,17:32:12.410,75,-1,974.358974358974,1.91428571428571,33.4611417199485
1743370332429,17:32:12.429,75,-1,961.172161172161,1.91575091575092,33.4611417199485
1743370332449,17:32:12.449,75,-1,952.380952380952,1.91428571428571,33.4611417199485
1743370332468,17:32:12.468,75,-1,938.461538461538,1.91428571428571,33.4611417199485
1743370332488,17:32:12.488,75,-1,924.542124542124,1.91428571428571,33.4611417199485
1743370332507,17:32:12.507,67,-1,914.285714285714,1.91428571428571,33.4611417199485
1743370332527,17:32:12.527,67,-1,904.761904761905,1.91428571428571,33.4611417199485
1743370332546,17:32:12.546,67,-1,893.772893772894,1.91428571428571,33.4611417199485
1743370332566,17:32:12.566,67,-1,884.249084249084,1.91575091575092,33.4611417199485
1743370332585,17:32:12.585,67,-1,939.194139194139,1.91575091575092,33.4611417199485
1743370332605,17:32:12.605,67,-1,1084.24908424908,1.91575091575092,33.4611417199485
1743370332624,17:32:12.624,67,-1,1278.38827838828,1.91428571428571,33.4611417199485
1743370332644,17:32:12.644,67,-1,1454.94505494505,1.91135531135531,33.4611417199485
1743370332663,17:32:12.663,67,-1,1575.82417582418,1.90989010989011,33.4611417199485
1743370332683,17:32:12.683,67,-1,1643.22344322344,1.9040293040293,33.4611417199485
1743370332702,17:32:12.702,67,-1,1677.65567765568,1.8967032967033,33.4611417199485
1743370332722,17:32:12.722,67,-1,1676.19047619048,1.88937728937729,33.4611417199485
1743370332741,17:32:12.741,67,-1,1650.54945054945,1.88058608058608,33.4611417199485
1743370332761,17:32:12.761,67,-1,1608.79120879121,1.87326007326007,33.4611417199485
1743370332780,17:32:12.780,67,-1,1559.70695970696,1.86593406593407,33.4611417199485
1743370332800,17:32:12.800,67,-1,1514.28571428571,1.85714285714286,33.4611417199485
1743370332819,17:32:12.819,67,-1,1471.06227106227,1.84688644688645,33.4611417199485
1743370332839,17:32:12.839,67,-1,1397.0695970696,1.83809523809524,33.4611417199485
1743370332858,17:32:12.858,67,-1,1319.41391941392,1.82783882783883,33.4611417199485
1743370332878,17:32:12.878,67,-1,1269.59706959707,1.81611721611722,33.4611417199485
1743370332897,17:32:12.897,67,-1,1245.42124542125,1.80586080586081,33.4711483046412
1743370332917,17:32:12.917,67,-1,1240.29304029304,1.8,33.4711483046412
1743370332936,17:32:12.936,67,-1,1244.68864468864,1.7956043956044,33.4711483046412
1743370332956,17:32:12.956,67,-1,1254.94505494505,1.79120879120879,33.4711483046412
1743370332975,17:32:12.975,67,-1,1250.54945054945,1.78534798534799,33.4711483046412
1743370332995,17:32:12.995,67,-1,1226.37362637363,1.78095238095238,33.4711483046412
1743370333014,17:32:13.014,67,-1,1200.7326007326,1.77655677655678,33.4711483046412
1743370333034,17:32:13.034,67,-1,1161.90476190476,1.77216117216117,33.4711483046412
1743370333053,17:32:13.053,67,-1,1120.87912087912,1.76923076923077,33.4711483046412
1743370333073,17:32:13.073,67,-1,1095.2380952381,1.76776556776557,33.4711483046412
1743370333092,17:32:13.092,67,-1,1069.59706959707,1.76483516483516,33.4711483046412
1743370333112,17:32:13.112,67,-1,1052.74725274725,1.76336996336996,33.4711483046412
1743370333131,17:32:13.131,67,-1,1032.23443223443,1.76043956043956,33.4711483046412
1743370333151,17:32:13.151,67,-1,1024.17582417582,1.75897435897436,33.4711483046412
1743370333170,17:32:13.170,67,-1,1019.78021978022,1.75750915750916,33.4711483046412
1743370333190,17:32:13.190,67,-1,1010.98901098901,1.75604395604396,33.4711483046412
1743370333209,17:32:13.209,67,-1,1000,1.75457875457875,33.4711483046412
1743370333229,17:32:13.229,67,-1,993.406593406593,1.75311355311355,33.4711483046412
1743370333248,17:32:13.248,67,-1,979.487179487179,1.75457875457875,33.4711483046412
1743370333268,17:32:13.268,67,-1,955.311355311355,1.75457875457875,33.4711483046412
1743370333287,17:32:13.287,67,-1,937.728937728938,1.75457875457875,33.4711483046412
1743370333307,17:32:13.307,67,-1,925.274725274725,1.75604395604396,33.4711483046412
1743370333326,17:32:13.326,67,-1,931.135531135531,1.75897435897436,33.4711483046412
1743370333346,17:32:13.346,67,-1,980.21978021978,1.76043956043956,33.4711483046412
1743370333365,17:32:13.365,67,-1,1094.50549450549,1.76483516483516,33.4711483046412
1743370333385,17:32:13.385,67,-1,1239.56043956044,1.77069597069597,33.4711483046412
1743370333404,17:32:13.404,67,-1,1380.21978021978,1.77509157509158,33.4711483046412
1743370333424,17:32:13.424,67,-1,1484.24908424908,1.78095238095238,33.4711483046412
1743370333443,17:32:13.443,67,-1,1547.98534798535,1.79120879120879,33.4711483046412
1743370333463,17:32:13.463,67,-1,1567.76556776557,1.80732600732601,33.4711483046412
1743370333482,17:32:13.482,67,-1,1553.84615384615,1.82051282051282,33.4711483046412
1743370333502,17:32:13.502,67,-1,1518.68131868132,1.82930402930403,33.4711483046412
1743370333521,17:32:13.521,67,-1,1485.71428571429,1.83809523809524,33.4711483046412
1743370333541,17:32:13.541,67,-1,1441.75824175824,1.84688644688645,33.4711483046412
1743370333560,17:32:13.560,67,-1,1394.87179487179,1.85421245421245,33.4711483046412
1743370333580,17:32:13.580,67,-1,1342.85714285714,1.86007326007326,33.4711483046412
1743370333599,17:32:13.599,67,-1,1277.65567765568,1.86593406593407,33.4711483046412
1743370333619,17:32:13.619,67,-1,1223.44322344322,1.86739926739927,33.4711483046412
1743370333638,17:32:13.638,67,-1,1197.0695970696,1.87326007326007,33.4711483046412
1743370333658,17:32:13.658,67,-1,1187.54578754579,1.87472527472527,33.4711483046412
1743370333677,17:32:13.677,67,-1,1192.67399267399,1.87765567765568,33.4711483046412
1743370333697,17:32:13.697,67,-1,1197.8021978022,1.88205128205128,33.4711483046412
1743370333716,17:32:13.716,67,-1,1200.7326007326,1.88351648351648,33.4711483046412
1743370333736,17:32:13.736,67,-1,1197.0695970696,1.88791208791209,33.4711483046412
1743370333755,17:32:13.755,67,-1,1186.81318681319,1.89084249084249,33.4711483046412
1743370333775,17:32:13.775,67,-1,1165.56776556777,1.89377289377289,33.4711483046412
1743370333794,17:32:13.794,67,-1,1132.60073260073,1.8981684981685,33.4711483046412
1743370333814,17:32:13.814,67,-1,1104.0293040293,1.8996336996337,33.4711483046412
1743370333833,17:32:13.833,67,-1,1074.72527472527,1.9025641025641,33.4711483046412
1743370333853,17:32:13.853,67,-1,1062.27106227106,1.9054945054945,33.4711483046412
1743370333872,17:32:13.872,67,-1,1052.74725274725,1.90842490842491,33.4711483046412
1743370333892,17:32:13.892,67,-1,1038.09523809524,1.90989010989011,33.4661450152053
1743370333911,17:32:13.911,67,-1,1019.78021978022,1.91428571428571,33.4661450152053
1743370333931,17:32:13.931,67,-1,994.871794871795,1.91721611721612,33.4661450152053
1743370333950,17:32:13.950,67,-1,975.824175824176,1.92161172161172,33.4661450152053
1743370333970,17:32:13.970,67,-1,961.172161172161,1.92454212454212,33.4661450152053
1743370333989,17:32:13.989,67,-1,953.846153846154,1.92893772893773,33.4661450152053
1743370334009,17:32:14.009,67,-1,945.054945054945,1.93333333333333,33.4661450152053
1743370334028,17:32:14.028,67,-1,928.205128205128,1.93772893772894,33.4661450152053
1743370334048,17:32:14.048,67,-1,921.611721611722,1.94065934065934,33.4661450152053
1743370334067,17:32:14.067,67,-1,923.076923076923,1.94505494505494,33.4661450152053
1743370334087,17:32:14.087,67,-1,940.659340659341,1.94798534798535,33.4661450152053
1743370334106,17:32:14.106,67,-1,1005.86080586081,1.95091575091575,33.4661450152053
1743370334126,17:32:14.126,67,-1,1128.20512820513,1.95238095238095,33.4661450152053
1743370334145,17:32:14.145,67,-1,1271.06227106227,1.95531135531136,33.4661450152053
1743370334165,17:32:14.165,67,-1,1401.4652014652,1.95824175824176,33.4661450152053
1743370334184,17:32:14.184,67,-1,1502.5641025641,1.95677655677656,33.4661450152053
1743370334204,17:32:14.204,67,-1,1580.95238095238,1.95824175824176,33.4661450152053
1743370334223,17:32:14.223,67,-1,1616.11721611722,1.95824175824176,33.4661450152053
1743370334243,17:32:14.243,67,-1,1610.98901098901,1.95970695970696,33.4661450152053
1743370334262,17:32:14.262,67,-1,1605.86080586081,1.96263736263736,33.4661450152053
1743370334282,17:32:14.282,67,-1,1593.40659340659,1.96263736263736,33.4661450152053
1743370334301,17:32:14.301,67,-1,1572.89377289377,1.96263736263736,33.4661450152053
1743370334321,17:32:14.321,67,-1,1539.19413919414,1.96410256410256,33.4661450152053
1743370334340,17:32:14.340,67,-1,1508.42490842491,1.96410256410256,33.4661450152053
1743370334360,17:32:14.360,67,-1,1457.14285714286,1.96556776556777,33.4661450152053
1743370334379,17:32:14.379,67,-1,1393.40659340659,1.96849816849817,33.4661450152053
1743370334399,17:32:14.399,67,-1,1331.86813186813,1.96849816849817,33.4661450152053
1743370334418,17:32:14.418,67,-1,1291.57509157509,1.96996336996337,33.4661450152053
1743370334438,17:32:14.438,67,-1,1268.86446886447,1.97142857142857,33.4661450152053
1743370334457,17:32:14.457,67,-1,1259.34065934066,1.97142857142857,33.4661450152053
1743370334477,17:32:14.477,67,-1,1261.53846153846,1.97289377289377,33.4661450152053
1743370334496,17:32:14.496,67,-1,1257.14285714286,1.97289377289377,33.4661450152053
1743370334516,17:32:14.516,67,-1,1256.41025641026,1.97435897435897,33.4661450152053
1743370334535,17:32:14.535,67,-1,1249.08424908425,1.97435897435897,33.4661450152053
1743370334555,17:32:14.555,67,-1,1234.43223443223,1.97435897435897,33.4661450152053
1743370334574,17:32:14.574,67,-1,1206.59340659341,1.97582417582418,33.4661450152053
1743370334594,17:32:14.594,67,-1,1185.34798534799,1.97582417582418,33.4661450152053
1743370334613,17:32:14.613,67,-1,1155.31135531136,1.97728937728938,33.4661450152053
1743370334633,17:32:14.633,67,-1,1119.41391941392,1.97875457875458,33.4661450152053
1743370334652,17:32:14.652,67,-1,1106.95970695971,1.97875457875458,33.4661450152053
1743370334672,17:32:14.672,67,-1,1098.9010989011,1.97875457875458,33.4661450152053
1743370334691,17:32:14.691,67,-1,1079.85347985348,1.98021978021978,33.4661450152053
1743370334711,17:32:14.711,67,-1,1054.21245421245,1.98168498168498,33.4661450152053
1743370334730,17:32:14.730,67,-1,1027.10622710623,1.98315018315018,33.4661450152053
1743370334750,17:32:14.750,67,-1,1019.78021978022,1.98461538461538,33.4661450152053
1743370334769,17:32:14.769,67,-1,1020.51282051282,1.98461538461538,33.4661450152053
1743370334789,17:32:14.789,67,-1,1024.90842490842,1.98608058608059,33.4661450152053
1743370334808,17:32:14.808,67,-1,1025.64102564103,1.98608058608059,33.4661450152053
1743370334828,17:32:14.828,67,-1,1027.83882783883,1.98754578754579,33.4661450152053
1743370334847,17:32:14.847,67,-1,1023.44322344322,1.98901098901099,33.4661450152053
1743370334867,17:32:14.867,67,-1,1013.91941391941,1.98901098901099,33.4661450152053
1743370334886,17:32:14.886,67,-1,1006.59340659341,1.99047619047619,33.4811548660509
1743370334906,17:32:14.906,67,-1,1024.17582417582,1.99047619047619,33.4811548660509
1743370334925,17:32:14.925,67,-1,1096.7032967033,1.99047619047619,33.4811548660509
1743370334945,17:32:14.945,67,-1,1216.84981684982,1.99194139194139,33.4811548660509
1743370334964,17:32:14.964,67,-1,1362.63736263736,1.99194139194139,33.4811548660509
1743370334984,17:32:14.984,67,-1,1506.95970695971,1.99340659340659,33.4811548660509
1743370335003,17:32:15.003,77,-1,1627.83882783883,1.99340659340659,33.4811548660509
1743370335023,17:32:15.023,77,-1,1724.54212454212,1.99340659340659,33.4811548660509
1743370335042,17:32:15.042,77,-1,1783.15018315018,1.99340659340659,33.4811548660509
1743370335062,17:32:15.062,77,-1,1813.18681318681,1.99487179487179,33.4811548660509
1743370335081,17:32:15.081,77,-1,1821.97802197802,1.99487179487179,33.4811548660509
1743370335101,17:32:15.101,77,-1,1816.84981684982,1.99487179487179,33.4811548660509
1743370335120,17:32:15.120,77,-1,1808.05860805861,1.99487179487179,33.4811548660509
1743370335140,17:32:15.140,77,-1,1799.2673992674,1.99487179487179,33.4811548660509
1743370335159,17:32:15.159,77,-1,1761.90476190476,1.99487179487179,33.4811548660509
1743370335179,17:32:15.179,77,-1,1701.8315018315,1.99340659340659,33.4811548660509
1743370335198,17:32:15.198,77,-1,1617.58241758242,1.99487179487179,33.4811548660509
1743370335218,17:32:15.218,77,-1,1538.46153846154,1.99340659340659,33.4811548660509
1743370335237,17:32:15.237,77,-1,1492.30769230769,1.99340659340659,33.4811548660509
1743370335257,17:32:15.257,77,-1,1443.22344322344,1.99340659340659,33.4811548660509
1743370335276,17:32:15.276,77,-1,1413.91941391941,1.99194139194139,33.4811548660509
1743370335296,17:32:15.296,77,-1,1405.12820512821,1.99194139194139,33.4811548660509
1743370335315,17:32:15.315,77,-1,1398.5347985348,1.99194139194139,33.4811548660509
1743370335335,17:32:15.335,77,-1,1383.88278388278,1.99194139194139,33.4811548660509
1743370335354,17:32:15.354,77,-1,1361.17216117216,1.99194139194139,33.4811548660509
1743370335374,17:32:15.374,77,-1,1336.99633699634,1.99194139194139,33.4811548660509
1743370335393,17:32:15.393,77,-1,1311.35531135531,1.99194139194139,33.4811548660509
1743370335413,17:32:15.413,77,-1,1278.38827838828,1.99194139194139,33.4811548660509
1743370335432,17:32:15.432,77,-1,1251.28205128205,1.99194139194139,33.4811548660509
1743370335452,17:32:15.452,77,-1,1222.71062271062,1.99194139194139,33.4811548660509
1743370335471,17:32:15.471,77,-1,1200,1.99194139194139,33.4811548660509
1743370335491,17:32:15.491,77,-1,1180.95238095238,1.99194139194139,33.4811548660509
1743370335510,17:32:15.510,77,-1,1155.31135531136,1.99194139194139,33.4811548660509
1743370335530,17:32:15.530,77,-1,1142.12454212454,1.99194139194139,33.4811548660509
1743370335549,17:32:15.549,77,-1,1129.67032967033,1.99194139194139,33.4811548660509
1743370335569,17:32:15.569,77,-1,1107.69230769231,1.99194139194139,33.4811548660509
1743370335588,17:32:15.588,77,-1,1095.9706959707,1.99194139194139,33.4811548660509
1743370335608,17:32:15.608,77,-1,1096.7032967033,1.99194139194139,33.4811548660509
1743370335627,17:32:15.627,77,-1,1092.30769230769,1.99194139194139,33.4811548660509
1743370335647,17:32:15.647,77,-1,1080.58608058608,1.99194139194139,33.4811548660509
1743370335666,17:32:15.666,77,-1,1069.59706959707,1.99194139194139,33.4811548660509
1743370335686,17:32:15.686,77,-1,1063.73626373626,1.99194139194139,33.4811548660509
1743370335705,17:32:15.705,77,-1,1063.00366300366,1.99194139194139,33.4811548660509
1743370335725,17:32:15.725,77,-1,1068.86446886447,1.99047619047619,33.4811548660509
1743370335744,17:32:15.744,77,-1,1085.71428571429,1.99194139194139,33.4811548660509
1743370335764,17:32:15.764,77,-1,1136.99633699634,1.99047619047619,33.4811548660509
1743370335783,17:32:15.783,77,-1,1252.01465201465,1.99047619047619,33.4811548660509
1743370335803,17:32:15.803,73,-1,1420.51282051282,1.99047619047619,33.4811548660509
1743370335822,17:32:15.822,73,-1,1599.2673992674,1.99047619047619,33.4811548660509
1743370335842,17:32:15.842,73,-1,1759.70695970696,1.99047619047619,33.4811548660509
1743370335861,17:32:15.861,73,-1,1890.10989010989,1.99047619047619,33.4811548660509
1743370335881,17:32:15.881,73,-1,1976.55677655678,1.99047619047619,33.4711483046412
1743370335900,17:32:15.900,73,-1,2019.04761904762,1.99047619047619,33.4711483046412
1743370335920,17:32:15.920,73,-1,2021.24542124542,1.99047619047619,33.4711483046412
1743370335939,17:32:15.939,73,-1,2010.98901098901,1.99047619047619,33.4711483046412
1743370335959,17:32:15.959,73,-1,2006.59340659341,1.99047619047619,33.4711483046412
1743370335978,17:32:15.978,73,-1,1988.27838827839,1.99047619047619,33.4711483046412
1743370335998,17:32:15.998,73,-1,1956.04395604396,1.99047619047619,33.4711483046412
1743370336017,17:32:16.017,73,-1,1895.9706959707,1.99047619047619,33.4711483046412
1743370336037,17:32:16.037,73,-1,1806.59340659341,1.99047619047619,33.4711483046412
1743370336056,17:32:16.056,73,-1,1711.35531135531,1.99047619047619,33.4711483046412
1743370336076,17:32:16.076,73,-1,1641.75824175824,1.98901098901099,33.4711483046412
1743370336095,17:32:16.095,73,-1,1594.87179487179,1.99047619047619,33.4711483046412
1743370336115,17:32:16.115,73,-1,1577.28937728938,1.99047619047619,33.4711483046412
1743370336134,17:32:16.134,73,-1,1580.21978021978,1.99047619047619,33.4711483046412
1743370336154,17:32:16.154,73,-1,1580.21978021978,1.98901098901099,33.4711483046412
1743370336173,17:32:16.173,73,-1,1575.82417582418,1.99047619047619,33.4711483046412
1743370336193,17:32:16.193,73,-1,1543.58974358974,1.98901098901099,33.4711483046412
1743370336212,17:32:16.212,73,-1,1504.7619047619,1.98901098901099,33.4711483046412
1743370336232,17:32:16.232,73,-1,1468.13186813187,1.98901098901099,33.4711483046412
1743370336251,17:32:16.251,73,-1,1430.76923076923,1.98901098901099,33.4711483046412
1743370336271,17:32:16.271,73,-1,1401.4652014652,1.98901098901099,33.4711483046412
1743370336290,17:32:16.290,73,-1,1378.02197802198,1.98901098901099,33.4711483046412
1743370336310,17:32:16.310,73,-1,1343.58974358974,1.98901098901099,33.4711483046412
1743370336329,17:32:16.329,73,-1,1303.2967032967,1.98901098901099,33.4711483046412
1743370336349,17:32:16.349,73,-1,1268.86446886447,1.98754578754579,33.4711483046412
1743370336368,17:32:16.368,73,-1,1250.54945054945,1.98901098901099,33.4711483046412
1743370336388,17:32:16.388,73,-1,1234.43223443223,1.98754578754579,33.4711483046412
1743370336407,17:32:16.407,73,-1,1232.96703296703,1.98608058608059,33.4711483046412
1743370336427,17:32:16.427,73,-1,1247.61904761905,1.98754578754579,33.4711483046412
1743370336446,17:32:16.446,73,-1,1253.47985347985,1.98754578754579,33.4711483046412
1743370336466,17:32:16.466,73,-1,1237.36263736264,1.98754578754579,33.4711483046412
1743370336485,17:32:16.485,73,-1,1224.90842490842,1.98754578754579,33.4711483046412
1743370336505,17:32:16.505,73,-1,1224.17582417582,1.98608058608059,33.4711483046412
1743370336524,17:32:16.524,73,-1,1213.18681318681,1.98608058608059,33.4711483046412
1743370336544,17:32:16.544,73,-1,1208.05860805861,1.98608058608059,33.4711483046412
1743370336563,17:32:16.563,73,-1,1206.59340659341,1.98754578754579,33.4711483046412
1743370336583,17:32:16.583,73,-1,1204.3956043956,1.98608058608059,33.4711483046412
1743370336602,17:32:16.602,73,-1,1191.20879120879,1.98608058608059,33.4711483046412
1743370336622,17:32:16.622,73,-1,1186.81318681319,1.98608058608059,33.4711483046412
1743370336641,17:32:16.641,75,-1,1235.89743589744,1.98608058608059,33.4711483046412
1743370336661,17:32:16.661,75,-1,1368.49816849817,1.98608058608059,33.4711483046412
1743370336680,17:32:16.680,75,-1,1565.56776556777,1.98608058608059,33.4711483046412
1743370336700,17:32:16.700,75,-1,1792.67399267399,1.98608058608059,33.4711483046412
1743370336719,17:32:16.719,75,-1,1967.03296703297,1.98608058608059,33.4711483046412
1743370336739,17:32:16.739,75,-1,2082.78388278388,1.98608058608059,33.4711483046412
1743370336758,17:32:16.758,75,-1,2153.84615384615,1.98461538461538,33.4711483046412
1743370336778,17:32:16.778,75,-1,2181.68498168498,1.98461538461538,33.4711483046412
1743370336797,17:32:16.797,75,-1,2183.15018315018,1.98461538461538,33.4711483046412
1743370336817,17:32:16.817,75,-1,2155.31135531136,1.98608058608059,33.4711483046412
1743370336836,17:32:16.836,75,-1,2093.77289377289,1.98754578754579,33.4711483046412
1743370336856,17:32:16.856,75,-1,2035.16483516484,1.98901098901099,33.4711483046412
1743370336875,17:32:16.875,75,-1,1979.48717948718,1.98901098901099,33.4811548660509
1743370336895,17:32:16.895,75,-1,1904.0293040293,1.99047619047619,33.4811548660509
1743370336914,17:32:16.914,75,-1,1821.24542124542,1.99047619047619,33.4811548660509
1743370336934,17:32:16.934,75,-1,1740.65934065934,1.99194139194139,33.4811548660509
1743370336953,17:32:16.953,75,-1,1676.19047619048,1.99194139194139,33.4811548660509
1743370336973,17:32:16.973,75,-1,1647.61904761905,1.99194139194139,33.4811548660509
1743370336992,17:32:16.992,75,-1,1632.96703296703,1.99194139194139,33.4811548660509
1743370337012,17:32:17.012,75,-1,1632.96703296703,1.99047619047619,33.4811548660509
1743370337031,17:32:17.031,75,-1,1631.50183150183,1.98901098901099,33.4811548660509
1743370337051,17:32:17.051,75,-1,1613.91941391941,1.98608058608059,33.4811548660509
1743370337070,17:32:17.070,75,-1,1578.02197802198,1.98461538461538,33.4811548660509
1743370337090,17:32:17.090,75,-1,1538.46153846154,1.98461538461538,33.4811548660509
1743370337109,17:32:17.109,75,-1,1506.22710622711,1.98315018315018,33.4811548660509
1743370337129,17:32:17.129,75,-1,1462.27106227106,1.98315018315018,33.4811548660509
1743370337148,17:32:17.148,75,-1,1410.98901098901,1.98168498168498,33.4811548660509
1743370337168,17:32:17.168,75,-1,1364.10256410256,1.98168498168498,33.4811548660509
1743370337187,17:32:17.187,75,-1,1330.40293040293,1.97875457875458,33.4811548660509
1743370337207,17:32:17.207,75,-1,1312.82051282051,1.97435897435897,33.4811548660509
1743370337226,17:32:17.226,75,-1,1291.57509157509,1.96556776556777,33.4811548660509
1743370337246,17:32:17.246,75,-1,1265.93406593407,1.95384615384615,33.4811548660509
1743370337265,17:32:17.265,75,-1,1249.08424908425,1.94798534798535,33.4811548660509
1743370337285,17:32:17.285,75,-1,1246.15384615385,1.93333333333333,33.4811548660509
1743370337304,17:32:17.304,75,-1,1265.93406593407,1.92600732600733,33.4811548660509
