RawTimestamp,LocalTime,HR_Direct,HR_Buffered,PPG,GSR,Temperature
1743442765067,13:39:25.067,-1,-1,0,2.98827838827839,26.4608428180218
1743442765086,13:39:25.086,-1,-1,0,2.98827838827839,26.4608428180218
1743442765106,13:39:25.106,-1,-1,0,2.09574836440508,26.4608428180218
1743442765125,13:39:25.125,-1,-1,0,2.09574836440508,26.4608428180218
1743442765145,13:39:25.145,-1,-1,0,2.09574836440508,26.4608428180218
1743442765164,13:39:25.164,-1,-1,0,2.09574836440508,26.4608428180218
1743442765184,13:39:25.184,-1,-1,0,2.09574836440508,26.4608428180218
1743442765203,13:39:25.203,-1,-1,0,2.08038187132264,26.4608428180218
1743442765223,13:39:25.223,-1,-1,0,2.08038187132264,26.4608428180218
1743442765242,13:39:25.242,-1,-1,0,2.08038187132264,26.4608428180218
1743442765262,13:39:25.262,-1,-1,0,2.08038187132264,26.4608428180218
1743442765281,13:39:25.281,-1,-1,0,2.08038187132264,26.4608428180218
1743442765301,13:39:25.301,-1,-1,0.732600732600733,2.06959706959707,26.4608428180218
1743442765320,13:39:25.320,-1,-1,0,2.06813186813187,26.4608428180218
1743442765340,13:39:25.340,-1,-1,0,2.06373626373626,26.4608428180218
1743442765359,13:39:25.359,-1,-1,0,2.05934065934066,26.4608428180218
1743442765379,13:39:25.379,-1,-1,0,2.05787545787546,26.4608428180218
1743442765398,13:39:25.398,-1,-1,0,2.05641025641026,26.4608428180218
1743442765418,13:39:25.418,-1,-1,0,2.05347985347985,26.4608428180218
1743442765437,13:39:25.437,-1,-1,0,2.05201465201465,26.4608428180218
1743442765457,13:39:25.457,-1,-1,0,2.05054945054945,26.4608428180218
1743442765476,13:39:25.476,-1,-1,0,2.04908424908425,26.4608428180218
1743442765496,13:39:25.496,-1,-1,0,2.04468864468864,26.4608428180218
1743442765515,13:39:25.515,-1,-1,0,2.04029304029304,26.4608428180218
1743442765535,13:39:25.535,-1,-1,0,2.03736263736264,26.4608428180218
1743442765554,13:39:25.554,-1,-1,0,2.03150183150183,26.4608428180218
1743442765574,13:39:25.574,-1,-1,0,2.03443223443223,26.4608428180218
1743442765593,13:39:25.593,-1,-1,0,2.03443223443223,26.4608428180218
1743442765613,13:39:25.613,-1,-1,0,2.03003663003663,26.4608428180218
1743442765632,13:39:25.632,-1,-1,0,2.02564102564103,26.4608428180218
1743442765652,13:39:25.652,-1,-1,0,2.01978021978022,26.4608428180218
1743442765671,13:39:25.671,-1,-1,0,2.01538461538462,26.4608428180218
1743442765691,13:39:25.691,-1,-1,0,2.00952380952381,26.4608428180218
1743442765710,13:39:25.710,-1,-1,0,2.003663003663,26.4608428180218
1743442765730,13:39:25.730,-1,-1,0,1.996336996337,26.4608428180218
1743442765749,13:39:25.749,-1,-1,0,1.98608058608059,26.4608428180218
1743442765769,13:39:25.769,-1,-1,0,1.97728937728938,26.4608428180218
1743442765788,13:39:25.788,-1,-1,0,1.96849816849817,26.4608428180218
1743442765808,13:39:25.808,-1,-1,0,1.95970695970696,26.4608428180218
1743442765827,13:39:25.827,-1,-1,0,1.95091575091575,26.4608428180218
1743442765847,13:39:25.847,-1,-1,0,1.94212454212454,26.4608428180218
1743442765866,13:39:25.866,-1,-1,0,1.94065934065934,26.4608428180218
1743442765886,13:39:25.886,-1,-1,0,1.94505494505494,26.4608428180218
1743442765905,13:39:25.905,-1,-1,0,1.94945054945055,26.4608428180218
1743442765925,13:39:25.925,-1,-1,0,1.95531135531136,26.4608428180218
1743442765944,13:39:25.944,-1,-1,0,1.96263736263736,26.4608428180218
1743442765964,13:39:25.964,-1,-1,0,1.97289377289377,26.4608428180218
1743442765983,13:39:25.983,-1,-1,0,1.97875457875458,35.6870330757229
1743442766003,13:39:26.003,-1,-1,0,1.98461538461538,35.6870330757229
1743442766022,13:39:26.022,-1,-1,0,1.98754578754579,35.6870330757229
1743442766042,13:39:26.042,-1,-1,0,1.98608058608059,35.6870330757229
1743442766061,13:39:26.061,-1,-1,0,1.98461538461538,35.6870330757229
1743442766081,13:39:26.081,-1,-1,0,1.98461538461538,35.6870330757229
1743442766100,13:39:26.100,-1,-1,0,1.98461538461538,35.6870330757229
1743442766120,13:39:26.120,-1,-1,0,1.98608058608059,35.6870330757229
1743442766139,13:39:26.139,-1,-1,0,1.98754578754579,35.6870330757229
1743442766159,13:39:26.159,-1,-1,0,1.98315018315018,35.6870330757229
1743442766178,13:39:26.178,-1,-1,0,1.97435897435897,35.6870330757229
1743442766198,13:39:26.198,-1,-1,0,1.98021978021978,35.6870330757229
1743442766217,13:39:26.217,-1,-1,0,1.98608058608059,35.6870330757229
1743442766237,13:39:26.237,-1,-1,0,1.98461538461538,35.6870330757229
1743442766256,13:39:26.256,-1,-1,0,1.98021978021978,35.6870330757229
1743442766276,13:39:26.276,-1,-1,0,1.97142857142857,35.6870330757229
1743442766295,13:39:26.295,-1,-1,0,1.96996336996337,35.6870330757229
1743442766315,13:39:26.315,-1,-1,0,1.96996336996337,35.6870330757229
1743442766334,13:39:26.334,-1,-1,0,1.96996336996337,35.6870330757229
1743442766354,13:39:26.354,-1,-1,0,1.96849816849817,35.6870330757229
1743442766373,13:39:26.373,-1,-1,0,1.95970695970696,35.6870330757229
1743442766393,13:39:26.393,-1,-1,0,1.94798534798535,35.6870330757229
1743442766412,13:39:26.412,-1,-1,0,1.93919413919414,35.6870330757229
1743442766432,13:39:26.432,-1,-1,0,1.93040293040293,35.6870330757229
1743442766451,13:39:26.451,-1,-1,0,1.92454212454212,35.6870330757229
1743442766471,13:39:26.471,-1,-1,0,1.91868131868132,35.6870330757229
1743442766490,13:39:26.490,-1,-1,0,1.91428571428571,35.6870330757229
1743442766510,13:39:26.510,-1,-1,0,1.90989010989011,35.6870330757229
1743442766529,13:39:26.529,-1,-1,0,1.9010989010989,35.6870330757229
1743442766549,13:39:26.549,-1,-1,0,1.90989010989011,35.6870330757229
1743442766568,13:39:26.568,-1,-1,0,1.90842490842491,35.6870330757229
1743442766588,13:39:26.588,-1,-1,0,1.90695970695971,35.6870330757229
1743442766607,13:39:26.607,-1,-1,0,1.90695970695971,35.6870330757229
1743442766627,13:39:26.627,-1,-1,0,1.90842490842491,35.6870330757229
1743442766646,13:39:26.646,-1,-1,0,1.90989010989011,35.6870330757229
1743442766666,13:39:26.666,-1,-1,305.494505494505,1.91135531135531,35.6870330757229
1743442766685,13:39:26.685,-1,-1,691.575091575092,1.91282051282051,35.6870330757229
1743442766705,13:39:26.705,-1,-1,985.347985347985,1.91575091575092,35.6870330757229
1743442766724,13:39:26.724,-1,-1,1180.21978021978,1.92161172161172,35.6870330757229
1743442766744,13:39:26.744,-1,-1,1273.26007326007,1.92747252747253,35.6870330757229
1743442766763,13:39:26.763,-1,-1,1287.91208791209,1.93333333333333,35.6870330757229
1743442766783,13:39:26.783,-1,-1,1262.27106227106,1.93626373626374,35.6870330757229
1743442766802,13:39:26.802,-1,-1,1227.83882783883,1.93919413919414,35.6870330757229
1743442766822,13:39:26.822,-1,-1,1201.4652014652,1.95091575091575,35.6870330757229
1743442766841,13:39:26.841,-1,-1,1185.34798534799,1.95531135531136,35.6870330757229
1743442766861,13:39:26.861,-1,-1,1180.21978021978,1.95970695970696,35.6870330757229
1743442766880,13:39:26.880,-1,-1,1184.61538461538,1.96556776556777,35.6870330757229
1743442766900,13:39:26.900,-1,-1,1188.27838827839,1.97582417582418,35.6870330757229
1743442766919,13:39:26.919,-1,-1,1195.6043956044,1.98168498168498,35.6870330757229
1743442766939,13:39:26.939,-1,-1,1184.61538461538,1.98608058608059,35.6870330757229
1743442766958,13:39:26.958,-1,-1,1180.21978021978,1.99194139194139,35.6870330757229
1743442766978,13:39:26.978,-1,-1,1176.55677655678,1.9978021978022,35.7170372185064
1743442766997,13:39:26.997,-1,-1,1178.02197802198,2.003663003663,35.7170372185064
1743442767017,13:39:27.017,-1,-1,1169.23076923077,2.00805860805861,35.7170372185064
1743442767036,13:39:27.036,-1,-1,1165.56776556777,2.01538461538462,35.7170372185064
1743442767056,13:39:27.056,-1,-1,1158.24175824176,2.01978021978022,35.7170372185064
1743442767075,13:39:27.075,-1,-1,1158.97435897436,2.02564102564103,35.7170372185064
1743442767095,13:39:27.095,-1,-1,1151.64835164835,2.03150183150183,35.7170372185064
1743442767114,13:39:27.114,-1,-1,1159.70695970696,2.03589743589744,35.7170372185064
1743442767134,13:39:27.134,-1,-1,1174.35897435897,2.04322344322344,35.7170372185064
1743442767153,13:39:27.153,-1,-1,1198.5347985348,2.05201465201465,35.7170372185064
1743442767173,13:39:27.173,-1,-1,1235.16483516484,2.06080586080586,35.7170372185064
1743442767192,13:39:27.192,-1,-1,1262.27106227106,2.06959706959707,35.7170372185064
1743442767212,13:39:27.212,-1,-1,1296.7032967033,2.07838827838828,35.7170372185064
1743442767231,13:39:27.231,-1,-1,1326.73992673993,2.08864468864469,35.7170372185064
1743442767251,13:39:27.251,-1,-1,1337.72893772894,2.0974358974359,35.7170372185064
1743442767270,13:39:27.270,-1,-1,1323.80952380952,2.11355311355311,35.7170372185064
1743442767290,13:39:27.290,-1,-1,1313.55311355311,2.12087912087912,35.7170372185064
1743442767309,13:39:27.309,-1,-1,1306.95970695971,2.12527472527472,35.7170372185064
1743442767329,13:39:27.329,-1,-1,1304.7619047619,2.13113553113553,35.7170372185064
1743442767348,13:39:27.348,-1,-1,1300.3663003663,2.13406593406593,35.7170372185064
1743442767368,13:39:27.368,-1,-1,1305.49450549451,2.13846153846154,35.7170372185064
1743442767387,13:39:27.387,-1,-1,1298.1684981685,2.14285714285714,35.7170372185064
1743442767407,13:39:27.407,-1,-1,1283.51648351648,2.14578754578755,35.7170372185064
1743442767426,13:39:27.426,-1,-1,1276.92307692308,2.14871794871795,35.7170372185064
1743442767446,13:39:27.446,-1,-1,1273.99267399267,2.15311355311355,35.7170372185064
1743442767465,13:39:27.465,-1,-1,1258.60805860806,2.15604395604396,35.7170372185064
1743442767485,13:39:27.485,-1,-1,1239.56043956044,2.15897435897436,35.7170372185064
1743442767504,13:39:27.504,-1,-1,1239.56043956044,2.16336996336996,35.7170372185064
1743442767524,13:39:27.524,-1,-1,1257.14285714286,2.16776556776557,35.7170372185064
1743442767543,13:39:27.543,-1,-1,1268.86446886447,2.17509157509157,35.7170372185064
1743442767563,13:39:27.563,-1,-1,1273.26007326007,2.18095238095238,35.7170372185064
1743442767582,13:39:27.582,-1,-1,1273.99267399267,2.18534798534799,35.7170372185064
1743442767602,13:39:27.602,-1,-1,1277.65567765568,2.18827838827839,35.7170372185064
1743442767621,13:39:27.621,-1,-1,1282.05128205128,2.19267399267399,35.7170372185064
1743442767641,13:39:27.641,-1,-1,1286.44688644689,2.1970695970696,35.7170372185064
1743442767660,13:39:27.660,-1,-1,1291.57509157509,2.1985347985348,35.7170372185064
1743442767680,13:39:27.680,-1,-1,1274.72527472527,2.2014652014652,35.7170372185064
1743442767699,13:39:27.699,-1,-1,1257.14285714286,2.2043956043956,35.7170372185064
1743442767719,13:39:27.719,-1,-1,1243.22344322344,2.20586080586081,35.7170372185064
1743442767738,13:39:27.738,-1,-1,1262.27106227106,2.20732600732601,35.7170372185064
1743442767758,13:39:27.758,-1,-1,1303.2967032967,2.20879120879121,35.7170372185064
1743442767777,13:39:27.777,-1,-1,1351.64835164835,2.20879120879121,35.7170372185064
1743442767797,13:39:27.797,-1,-1,1391.20879120879,2.20732600732601,35.7170372185064
1743442767816,13:39:27.816,-1,-1,1443.22344322344,2.20586080586081,35.7170372185064
1743442767836,13:39:27.836,-1,-1,1473.99267399267,2.2043956043956,35.7170372185064
1743442767855,13:39:27.855,-1,-1,1491.57509157509,2.2043956043956,35.7170372185064
1743442767875,13:39:27.875,-1,-1,1493.04029304029,2.20586080586081,35.7170372185064
1743442767894,13:39:27.894,-1,-1,1459.34065934066,2.21172161172161,35.7170372185064
1743442767914,13:39:27.914,-1,-1,1424.90842490842,2.21172161172161,35.7170372185064
1743442767933,13:39:27.933,-1,-1,1391.20879120879,2.21172161172161,35.7170372185064
1743442767953,13:39:27.953,-1,-1,1372.16117216117,2.20879120879121,35.7170372185064
1743442767972,13:39:27.972,-1,-1,1359.70695970696,2.20586080586081,35.7270385528682
1743442767992,13:39:27.992,-1,-1,1335.53113553114,2.2014652014652,35.7270385528682
1743442768011,13:39:28.011,-1,-1,1327.47252747253,2.2,35.7270385528682
1743442768031,13:39:28.031,-1,-1,1335.53113553114,2.2,35.7270385528682
1743442768050,13:39:28.050,-1,-1,1339.19413919414,2.2014652014652,35.7270385528682
1743442768070,13:39:28.070,-1,-1,1331.13553113553,2.2043956043956,35.7270385528682
1743442768089,13:39:28.089,-1,-1,1326.00732600733,2.2014652014652,35.7270385528682
1743442768109,13:39:28.109,-1,-1,1314.28571428571,2.19267399267399,35.7270385528682
1743442768128,13:39:28.128,-1,-1,1306.95970695971,2.18681318681319,35.7270385528682
1743442768148,13:39:28.148,-1,-1,1304.0293040293,2.18241758241758,35.7270385528682
1743442768167,13:39:28.167,-1,-1,1303.2967032967,2.17655677655678,35.7270385528682
1743442768187,13:39:28.187,-1,-1,1299.6336996337,2.17069597069597,35.7270385528682
1743442768206,13:39:28.206,-1,-1,1284.98168498168,2.16483516483516,35.7270385528682
1743442768226,13:39:28.226,-1,-1,1268.86446886447,2.15750915750916,35.7270385528682
1743442768245,13:39:28.245,-1,-1,1257.87545787546,2.15018315018315,35.7270385528682
1743442768265,13:39:28.265,-1,-1,1265.20146520147,2.14578754578755,35.7270385528682
1743442768284,13:39:28.284,-1,-1,1272.52747252747,2.14432234432234,35.7270385528682
1743442768304,13:39:28.304,-1,-1,1282.05128205128,2.13846153846154,35.7270385528682
1743442768323,13:39:28.323,-1,-1,1309.89010989011,2.13553113553114,35.7270385528682
1743442768343,13:39:28.343,-1,-1,1374.35897435897,2.13553113553114,35.7270385528682
1743442768362,13:39:28.362,-1,-1,1451.28205128205,2.13406593406593,35.7270385528682
1743442768382,13:39:28.382,-1,-1,1494.50549450549,2.13113553113553,35.7270385528682
1743442768401,13:39:28.401,-1,-1,1509.89010989011,2.12527472527472,35.7270385528682
1743442768421,13:39:28.421,-1,-1,1521.61172161172,2.11941391941392,35.7270385528682
1743442768440,13:39:28.440,-1,-1,1521.61172161172,2.11501831501831,35.7270385528682
1743442768460,13:39:28.460,-1,-1,1507.69230769231,2.11208791208791,35.7270385528682
1743442768479,13:39:28.479,-1,-1,1504.7619047619,2.11208791208791,35.7270385528682
1743442768499,13:39:28.499,-1,-1,1502.5641025641,2.11355311355311,35.7270385528682
1743442768518,13:39:28.518,-1,-1,1488.64468864469,2.11648351648352,35.7270385528682
1743442768538,13:39:28.538,-1,-1,1460.80586080586,2.11794871794872,35.7270385528682
1743442768557,13:39:28.557,-1,-1,1435.16483516484,2.11941391941392,35.7270385528682
1743442768577,13:39:28.577,-1,-1,1430.03663003663,2.12087912087912,35.7270385528682
1743442768596,13:39:28.596,-1,-1,1430.03663003663,2.12087912087912,35.7270385528682
1743442768616,13:39:28.616,-1,-1,1422.71062271062,2.11941391941392,35.7270385528682
1743442768635,13:39:28.635,-1,-1,1415.38461538462,2.11794871794872,35.7270385528682
1743442768655,13:39:28.655,-1,-1,1397.0695970696,2.11501831501831,35.7270385528682
1743442768674,13:39:28.674,-1,-1,1385.34798534799,2.11208791208791,35.7270385528682
1743442768694,13:39:28.694,-1,-1,1394.87179487179,2.10769230769231,35.7270385528682
1743442768713,13:39:28.713,-1,-1,1400.7326007326,2.1032967032967,35.7270385528682
1743442768733,13:39:28.733,-1,-1,1400,2.0989010989011,35.7270385528682
1743442768752,13:39:28.752,-1,-1,1416.11721611722,2.0959706959707,35.7270385528682
1743442768772,13:39:28.772,-1,-1,1430.76923076923,2.09157509157509,35.7270385528682
1743442768791,13:39:28.791,-1,-1,1438.82783882784,2.08864468864469,35.7270385528682
1743442768811,13:39:28.811,-1,-1,1435.89743589744,2.08424908424908,35.7270385528682
1743442768830,13:39:28.830,-1,-1,1448.35164835165,2.08278388278388,35.7270385528682
1743442768850,13:39:28.850,-1,-1,1494.50549450549,2.07838827838828,35.7270385528682
1743442768869,13:39:28.869,-1,-1,1558.24175824176,2.07985347985348,35.7270385528682
1743442768889,13:39:28.889,-1,-1,1609.52380952381,2.07692307692308,35.7270385528682
1743442768908,13:39:28.908,-1,-1,1666.66666666667,2.07545787545788,35.7270385528682
1743442768928,13:39:28.928,-1,-1,1715.75091575092,2.07106227106227,35.7270385528682
1743442768947,13:39:28.947,-1,-1,1732.60073260073,2.06813186813187,35.7270385528682
1743442768967,13:39:28.967,-1,-1,1715.01831501831,2.06520146520146,35.7620430397801
1743442768986,13:39:28.986,-1,-1,1686.44688644689,2.06080586080586,35.7620430397801
1743442769006,13:39:29.006,-1,-1,1651.28205128205,2.05641025641026,35.7620430397801
1743442769025,13:39:29.025,-1,-1,1616.84981684982,2.05201465201465,35.7620430397801
1743442769045,13:39:29.045,-1,-1,1568.49816849817,2.04761904761905,35.7620430397801
1743442769064,13:39:29.064,-1,-1,1531.86813186813,2.04468864468864,35.7620430397801
1743442769084,13:39:29.084,-1,-1,1515.75091575092,2.04029304029304,35.7620430397801
1743442769103,13:39:29.103,-1,-1,1510.62271062271,2.03736263736264,35.7620430397801
1743442769123,13:39:29.123,-1,-1,1479.12087912088,2.03296703296703,35.7620430397801
1743442769142,13:39:29.142,-1,-1,1434.43223443223,2.02857142857143,35.7620430397801
1743442769162,13:39:29.162,-1,-1,1381.68498168498,2.02564102564103,35.7620430397801
1743442769181,13:39:29.181,-1,-1,1330.40293040293,2.02271062271062,35.7620430397801
1743442769201,13:39:29.201,-1,-1,1285.71428571429,2.01978021978022,35.7620430397801
1743442769220,13:39:29.220,-1,-1,1255.67765567766,2.01538461538462,35.7620430397801
1743442769240,13:39:29.240,-1,-1,1273.99267399267,2.01245421245421,35.7620430397801
1743442769259,13:39:29.259,-1,-1,1319.41391941392,2.00952380952381,35.7620430397801
1743442769279,13:39:29.279,-1,-1,1335.53113553114,2.00659340659341,35.7620430397801
1743442769298,13:39:29.298,-1,-1,1326.00732600733,2.00512820512821,35.7620430397801
1743442769318,13:39:29.318,-1,-1,1299.6336996337,2.003663003663,35.7620430397801
1743442769337,13:39:29.337,-1,-1,1260.80586080586,2.0021978021978,35.7620430397801
1743442769357,13:39:29.357,-1,-1,1216.11721611722,1.9992673992674,35.7620430397801
1743442769376,13:39:29.376,-1,-1,1186.81318681319,1.9978021978022,35.7620430397801
1743442769396,13:39:29.396,-1,-1,1186.81318681319,1.9992673992674,35.7620430397801
1743442769415,13:39:29.415,-1,-1,1232.23443223443,1.9992673992674,35.7620430397801
1743442769435,13:39:29.435,-1,-1,1324.54212454212,1.9978021978022,35.7620430397801
1743442769454,13:39:29.454,-1,-1,1438.82783882784,1.99340659340659,35.7620430397801
1743442769474,13:39:29.474,-1,-1,1551.64835164835,1.98754578754579,35.7620430397801
1743442769493,13:39:29.493,-1,-1,1634.43223443223,1.98315018315018,35.7620430397801
1743442769513,13:39:29.513,-1,-1,1682.05128205128,1.97728937728938,35.7620430397801
1743442769532,13:39:29.532,-1,-1,1687.91208791209,1.97435897435897,35.7620430397801
1743442769552,13:39:29.552,-1,-1,1673.99267399267,1.97142857142857,35.7620430397801
1743442769571,13:39:29.571,-1,-1,1640.29304029304,1.97142857142857,35.7620430397801
1743442769591,13:39:29.591,-1,-1,1586.08058608059,1.96996336996337,35.7620430397801
1743442769610,13:39:29.610,-1,-1,1543.58974358974,1.96996336996337,35.7620430397801
1743442769630,13:39:29.630,-1,-1,1510.62271062271,1.97142857142857,35.7620430397801
1743442769649,13:39:29.649,-1,-1,1503.2967032967,1.97435897435897,35.7620430397801
1743442769669,13:39:29.669,-1,-1,1497.4358974359,1.97728937728938,35.7620430397801
1743442769688,13:39:29.688,-1,-1,1485.71428571429,1.97728937728938,35.7620430397801
1743442769708,13:39:29.708,-1,-1,1478.38827838828,1.97875457875458,35.7620430397801
1743442769727,13:39:29.727,-1,-1,1471.06227106227,1.97728937728938,35.7620430397801
1743442769747,13:39:29.747,-1,-1,1452.01465201465,1.97728937728938,35.7620430397801
1743442769766,13:39:29.766,-1,-1,1424.17582417582,1.97728937728938,35.7620430397801
1743442769786,13:39:29.786,-1,-1,1394.13919413919,1.97728937728938,35.7620430397801
1743442769805,13:39:29.805,-1,-1,1380.95238095238,1.97582417582418,35.7620430397801
1743442769825,13:39:29.825,-1,-1,1371.42857142857,1.97582417582418,35.7620430397801
1743442769844,13:39:29.844,-1,-1,1361.90476190476,1.97582417582418,35.7620430397801
1743442769864,13:39:29.864,-1,-1,1351.64835164835,1.97582417582418,35.7620430397801
1743442769883,13:39:29.883,-1,-1,1347.98534798535,1.98315018315018,35.7620430397801
1743442769903,13:39:29.903,-1,-1,1340.65934065934,1.98754578754579,35.7620430397801
1743442769922,13:39:29.922,-1,-1,1336.26373626374,1.98754578754579,35.7620430397801
1743442769942,13:39:29.942,-1,-1,1347.25274725275,1.98901098901099,35.7620430397801
1743442769961,13:39:29.961,-1,-1,1387.54578754579,1.99047619047619,35.7870460700942
1743442769981,13:39:29.981,-1,-1,1465.20146520146,1.99047619047619,35.7870460700942
1743442770000,13:39:30.000,-1,-1,1558.97435897436,1.99047619047619,35.7870460700942
1743442770020,13:39:30.020,-1,-1,1655.67765567766,1.99047619047619,35.7870460700942
1743442770039,13:39:30.039,-1,-1,1723.07692307692,1.99194139194139,35.7870460700942
1743442770059,13:39:30.059,-1,-1,1773.62637362637,1.99487179487179,35.7870460700942
1743442770078,13:39:30.078,-1,-1,1797.8021978022,1.996336996337,35.7870460700942
1743442770098,13:39:30.098,-1,-1,1788.27838827839,1.996336996337,35.7870460700942
1743442770117,13:39:30.117,-1,-1,1761.17216117216,2.003663003663,35.7870460700942
1743442770137,13:39:30.137,-1,-1,1700.3663003663,2.003663003663,35.7870460700942
1743442770156,13:39:30.156,-1,-1,1647.61904761905,2.003663003663,35.7870460700942
1743442770176,13:39:30.176,-1,-1,1583.88278388278,2.00659340659341,35.7870460700942
1743442770195,13:39:30.195,-1,-1,1526.00732600733,2.00659340659341,35.7870460700942
1743442770215,13:39:30.215,-1,-1,1496.7032967033,2.00659340659341,35.7870460700942
1743442770234,13:39:30.234,-1,-1,1488.64468864469,2.00659340659341,35.7870460700942
1743442770254,13:39:30.254,-1,-1,1495.9706959707,2.00659340659341,35.7870460700942
1743442770273,13:39:30.273,-1,-1,1502.5641025641,2.00659340659341,35.7870460700942
1743442770293,13:39:30.293,-1,-1,1501.8315018315,2.00512820512821,35.7870460700942
1743442770312,13:39:30.312,-1,-1,1503.2967032967,2.00512820512821,35.7870460700942
1743442770332,13:39:30.332,-1,-1,1487.17948717949,2.00512820512821,35.7870460700942
1743442770351,13:39:30.351,-1,-1,1460.80586080586,2.003663003663,35.7870460700942
1743442770371,13:39:30.371,-1,-1,1443.22344322344,2.003663003663,35.7870460700942
1743442770390,13:39:30.390,-1,-1,1419.78021978022,2.0021978021978,35.7870460700942
1743442770410,13:39:30.410,-1,-1,1404.3956043956,2.0021978021978,35.7870460700942
1743442770429,13:39:30.429,-1,-1,1397.0695970696,2.0021978021978,35.7870460700942
1743442770449,13:39:30.449,-1,-1,1399.2673992674,2.0007326007326,35.7870460700942
1743442770468,13:39:30.468,-1,-1,1393.40659340659,2.0007326007326,35.7870460700942
1743442770488,13:39:30.488,-1,-1,1373.62637362637,2.0021978021978,35.7870460700942
1743442770507,13:39:30.507,-1,-1,1413.91941391941,2.0021978021978,35.7870460700942
1743442770527,13:39:30.527,-1,-1,1505.49450549451,2.0007326007326,35.7870460700942
1743442770546,13:39:30.546,-1,-1,1613.18681318681,2.0021978021978,35.7870460700942
1743442770566,13:39:30.566,-1,-1,1712.08791208791,2.003663003663,35.7870460700942
1743442770585,13:39:30.585,-1,-1,1773.62637362637,2.003663003663,35.7870460700942
1743442770605,13:39:30.605,-1,-1,1788.27838827839,2.00512820512821,35.7870460700942
1743442770624,13:39:30.624,-1,-1,1771.42857142857,2.00805860805861,35.7870460700942
1743442770644,13:39:30.644,-1,-1,1739.92673992674,2.00952380952381,35.7870460700942
1743442770663,13:39:30.663,-1,-1,1707.69230769231,2.01098901098901,35.7870460700942
1743442770683,13:39:30.683,-1,-1,1663.73626373626,2.01391941391941,35.7870460700942
1743442770702,13:39:30.702,-1,-1,1613.91941391941,2.01684981684982,35.7870460700942
1743442770722,13:39:30.722,-1,-1,1564.10256410256,2.02124542124542,35.7870460700942
1743442770741,13:39:30.741,-1,-1,1531.86813186813,2.02417582417582,35.7870460700942
1743442770761,13:39:30.761,-1,-1,1500.3663003663,2.02710622710623,35.7870460700942
1743442770780,13:39:30.780,-1,-1,1468.13186813187,2.03296703296703,35.7870460700942
1743442770800,13:39:30.800,-1,-1,1455.67765567766,2.03589743589744,35.7870460700942
1743442770819,13:39:30.819,-1,-1,1444.68864468864,2.04029304029304,35.7870460700942
1743442770839,13:39:30.839,-1,-1,1441.02564102564,2.04468864468864,35.7870460700942
1743442770858,13:39:30.858,-1,-1,1460.80586080586,2.04761904761905,35.7870460700942
1743442770878,13:39:30.878,-1,-1,1476.19047619048,2.05347985347985,35.7870460700942
1743442770897,13:39:30.897,-1,-1,1473.99267399267,2.06373626373626,35.7870460700942
1743442770917,13:39:30.917,-1,-1,1477.65567765568,2.07399267399267,35.7870460700942
1743442770936,13:39:30.936,-1,-1,1488.64468864469,2.08131868131868,35.7870460700942
1743442770956,13:39:30.956,-1,-1,1517.21611721612,2.08424908424908,35.8020478184335
1743442770975,13:39:30.975,-1,-1,1538.46153846154,2.08864468864469,35.8020478184335
1743442770995,13:39:30.995,-1,-1,1530.40293040293,2.09304029304029,35.8020478184335
1743442771014,13:39:31.014,-1,-1,1530.40293040293,2.0974358974359,35.8020478184335
1743442771034,13:39:31.034,-1,-1,1569.23076923077,2.1032967032967,35.8020478184335
1743442771053,13:39:31.053,-1,-1,1634.43223443223,2.10622710622711,35.8020478184335
1743442771073,13:39:31.073,-1,-1,1706.95970695971,2.10915750915751,35.8020478184335
1743442771092,13:39:31.092,-1,-1,1761.90476190476,2.11355311355311,35.8020478184335
1743442771112,13:39:31.112,-1,-1,1798.5347985348,2.11648351648352,35.8020478184335
1743442771131,13:39:31.131,-1,-1,1797.8021978022,2.12087912087912,35.8020478184335
1743442771151,13:39:31.151,-1,-1,1764.10256410256,2.12673992673993,35.8020478184335
1743442771170,13:39:31.170,-1,-1,1717.94871794872,2.12967032967033,35.8020478184335
1743442771190,13:39:31.190,-1,-1,1666.66666666667,2.13406593406593,35.8020478184335
1743442771209,13:39:31.209,-1,-1,1622.71062271062,2.13553113553114,35.8020478184335
1743442771229,13:39:31.229,-1,-1,1571.42857142857,2.13846153846154,35.8020478184335
1743442771248,13:39:31.248,-1,-1,1525.27472527473,2.13992673992674,35.8020478184335
1743442771268,13:39:31.268,-1,-1,1492.30769230769,2.14139194139194,35.8020478184335
1743442771287,13:39:31.287,-1,-1,1471.06227106227,2.14285714285714,35.8020478184335
1743442771307,13:39:31.307,-1,-1,1451.28205128205,2.14285714285714,35.8020478184335
1743442771326,13:39:31.326,-1,-1,1441.02564102564,2.14285714285714,35.8020478184335
1743442771346,13:39:31.346,-1,-1,1427.10622710623,2.14139194139194,35.8020478184335
1743442771365,13:39:31.365,-1,-1,1405.86080586081,2.14139194139194,35.8020478184335
1743442771385,13:39:31.385,-1,-1,1396.336996337,2.14139194139194,35.8020478184335
1743442771404,13:39:31.404,-1,-1,1380.21978021978,2.13992673992674,35.8020478184335
1743442771424,13:39:31.424,-1,-1,1358.97435897436,2.13992673992674,35.8020478184335
1743442771443,13:39:31.443,-1,-1,1327.47252747253,2.13846153846154,35.8020478184335
1743442771463,13:39:31.463,-1,-1,1296.7032967033,2.13553113553114,35.8020478184335
1743442771482,13:39:31.482,-1,-1,1290.10989010989,2.13406593406593,35.8020478184335
1743442771502,13:39:31.502,-1,-1,1282.78388278388,2.13260073260073,35.8020478184335
1743442771521,13:39:31.521,-1,-1,1275.45787545788,2.12967032967033,35.8020478184335
1743442771541,13:39:31.541,-1,-1,1281.31868131868,2.13846153846154,35.8020478184335
1743442771560,13:39:31.560,-1,-1,1324.54212454212,2.15604395604396,35.8020478184335
1743442771580,13:39:31.580,-1,-1,1395.6043956044,2.16190476190476,35.8020478184335
1743442771599,13:39:31.599,-1,-1,1478.38827838828,2.17069597069597,35.8020478184335
1743442771619,13:39:31.619,-1,-1,1564.83516483516,2.16923076923077,35.8020478184335
1743442771638,13:39:31.638,-1,-1,1630.03663003663,2.16776556776557,35.8020478184335
1743442771658,13:39:31.658,-1,-1,1681.31868131868,2.16923076923077,35.8020478184335
1743442771677,13:39:31.677,-1,-1,1717.94871794872,2.16630036630037,35.8020478184335
1743442771697,13:39:31.697,-1,-1,1714.28571428571,2.16190476190476,35.8020478184335
1743442771716,13:39:31.716,-1,-1,1693.77289377289,2.15750915750916,35.8020478184335
1743442771736,13:39:31.736,-1,-1,1652.01465201465,2.15457875457875,35.8020478184335
1743442771755,13:39:31.755,-1,-1,1591.94139194139,2.15164835164835,35.8020478184335
1743442771775,13:39:31.775,-1,-1,1540.65934065934,2.14725274725275,35.8020478184335
1743442771794,13:39:31.794,-1,-1,1498.1684981685,2.14578754578755,35.8020478184335
1743442771814,13:39:31.814,-1,-1,1451.28205128205,2.14285714285714,35.8020478184335
1743442771833,13:39:31.833,-1,-1,1410.98901098901,2.13846153846154,35.8020478184335
1743442771853,13:39:31.853,-1,-1,1373.62637362637,2.13406593406593,35.8020478184335
1743442771872,13:39:31.872,-1,-1,1342.12454212454,2.12967032967033,35.8020478184335
1743442771892,13:39:31.892,-1,-1,1310.62271062271,2.12527472527472,35.8020478184335
1743442771911,13:39:31.911,-1,-1,1290.84249084249,2.11794871794872,35.8020478184335
1743442771931,13:39:31.931,-1,-1,1294.50549450549,2.11208791208791,35.8020478184335
1743442771950,13:39:31.950,-1,-1,1302.5641025641,2.10622710622711,35.827050615917
1743442771970,13:39:31.970,-1,-1,1290.10989010989,2.1003663003663,35.827050615917
1743442771989,13:39:31.989,-1,-1,1258.60805860806,2.09010989010989,35.827050615917
1743442772009,13:39:32.009,-1,-1,1238.82783882784,2.08131868131868,35.827050615917
1743442772028,13:39:32.028,-1,-1,1246.15384615385,2.07399267399267,35.827050615917
1743442772048,13:39:32.048,-1,-1,1255.67765567766,2.06520146520146,35.827050615917
1743442772067,13:39:32.067,-1,-1,1260.80586080586,2.05201465201465,35.827050615917
1743442772087,13:39:32.087,-1,-1,1293.04029304029,2.03736263736264,35.827050615917
1743442772106,13:39:32.106,-1,-1,1352.38095238095,2.02271062271062,35.827050615917
1743442772126,13:39:32.126,-1,-1,1448.35164835165,2.01245421245421,35.827050615917
1743442772145,13:39:32.145,-1,-1,1561.90476190476,2.003663003663,35.827050615917
1743442772165,13:39:32.165,-1,-1,1656.41025641026,1.98315018315018,35.827050615917
1743442772184,13:39:32.184,-1,-1,1721.61172161172,1.96410256410256,35.827050615917
1743442772204,13:39:32.204,-1,-1,1756.04395604396,1.94358974358974,35.827050615917
1743442772223,13:39:32.223,-1,-1,1768.49816849817,1.92600732600733,35.827050615917
1743442772243,13:39:32.243,-1,-1,1783.88278388278,1.91575091575092,35.827050615917
1743442772262,13:39:32.262,-1,-1,1806.59340659341,1.91282051282051,35.827050615917
1743442772282,13:39:32.282,-1,-1,1806.59340659341,1.90989010989011,35.827050615917
1743442772301,13:39:32.301,-1,-1,1778.75457875458,1.90989010989011,35.827050615917
1743442772321,13:39:32.321,-1,-1,1747.98534798535,1.91135531135531,35.827050615917
1743442772340,13:39:32.340,-1,-1,1747.25274725275,1.90989010989011,35.827050615917
1743442772360,13:39:32.360,-1,-1,1777.28937728938,1.91135531135531,35.827050615917
1743442772379,13:39:32.379,-1,-1,1786.08058608059,1.91282051282051,35.827050615917
1743442772399,13:39:32.399,-1,-1,1769.96336996337,1.91575091575092,35.827050615917
1743442772418,13:39:32.418,-1,-1,1739.92673992674,1.91428571428571,35.827050615917
1743442772438,13:39:32.438,-1,-1,1696.7032967033,1.91721611721612,35.827050615917
1743442772457,13:39:32.457,-1,-1,1635.16483516484,1.91575091575092,35.827050615917
1743442772477,13:39:32.477,-1,-1,1575.09157509157,1.91428571428571,35.827050615917
1743442772496,13:39:32.496,-1,-1,1533.33333333333,1.91135531135531,35.827050615917
1743442772516,13:39:32.516,-1,-1,1496.7032967033,1.91135531135531,35.827050615917
1743442772535,13:39:32.535,-1,-1,1451.28205128205,1.91282051282051,35.827050615917
1743442772555,13:39:32.555,-1,-1,1402.1978021978,1.91575091575092,35.827050615917
1743442772574,13:39:32.574,-1,-1,1365.56776556777,1.91575091575092,35.827050615917
1743442772594,13:39:32.594,-1,-1,1352.38095238095,1.91721611721612,35.827050615917
1743442772613,13:39:32.613,-1,-1,1356.04395604396,1.91868131868132,35.827050615917
1743442772633,13:39:32.633,-1,-1,1390.47619047619,1.91575091575092,35.827050615917
1743442772652,13:39:32.652,-1,-1,1471.79487179487,1.91428571428571,35.827050615917
1743442772672,13:39:32.672,-1,-1,1597.8021978022,1.91575091575092,35.827050615917
1743442772691,13:39:32.691,-1,-1,1723.07692307692,1.91868131868132,35.827050615917
1743442772711,13:39:32.711,-1,-1,1821.97802197802,1.92014652014652,35.827050615917
1743442772730,13:39:32.730,-1,-1,1906.22710622711,1.92600732600733,35.827050615917
1743442772750,13:39:32.750,-1,-1,1980.95238095238,1.92893772893773,35.827050615917
1743442772769,13:39:32.769,-1,-1,2024.90842490842,1.93040293040293,35.827050615917
1743442772789,13:39:32.789,-1,-1,2027.83882783883,1.93186813186813,35.827050615917
1743442772808,13:39:32.808,-1,-1,1999.2673992674,1.92454212454212,35.827050615917
1743442772828,13:39:32.828,-1,-1,1924.54212454212,1.91135531135531,35.827050615917
1743442772847,13:39:32.847,-1,-1,1828.57142857143,1.88644688644689,35.827050615917
1743442772867,13:39:32.867,-1,-1,1762.63736263736,1.86593406593407,35.827050615917
1743442772886,13:39:32.886,-1,-1,1728.93772893773,1.85860805860806,35.827050615917
1743442772906,13:39:32.906,-1,-1,1723.07692307692,1.84835164835165,35.827050615917
1743442772925,13:39:32.925,-1,-1,1741.39194139194,1.83809523809524,35.827050615917
1743442772945,13:39:32.945,-1,-1,1756.04395604396,1.81318681318681,35.8420522245578
1743442772964,13:39:32.964,-1,-1,1739.19413919414,1.7985347985348,35.8420522245578
1743442772984,13:39:32.984,-1,-1,1688.64468864469,1.79413919413919,35.8420522245578
1743442773003,13:39:33.003,-1,-1,1627.83882783883,1.78241758241758,35.8420522245578
1743442773023,13:39:33.023,-1,-1,1494.50549450549,1.75897435897436,35.8420522245578
1743442773042,13:39:33.042,-1,-1,1438.82783882784,1.75897435897436,35.8420522245578
1743442773062,13:39:33.062,-1,-1,1462.27106227106,1.76043956043956,35.8420522245578
1743442773081,13:39:33.081,-1,-1,1556.77655677656,1.76630036630037,35.8420522245578
1743442773101,13:39:33.101,-1,-1,1663.73626373626,1.75750915750916,35.8420522245578
1743442773120,13:39:33.120,-1,-1,1739.92673992674,1.75604395604396,35.8420522245578
1743442773140,13:39:33.140,-1,-1,1781.68498168498,1.76483516483516,35.8420522245578
1743442773159,13:39:33.159,-1,-1,1794.13919413919,1.77509157509158,35.8420522245578
1743442773179,13:39:33.179,-1,-1,1790.47619047619,1.77216117216117,35.8420522245578
1743442773198,13:39:33.198,-1,-1,1791.94139194139,1.77655677655678,35.8420522245578
1743442773218,13:39:33.218,-1,-1,1864.46886446886,1.77509157509158,35.8420522245578
1743442773237,13:39:33.237,-1,-1,2008.05860805861,1.78095238095238,35.8420522245578
1743442773257,13:39:33.257,-1,-1,2056.41025641026,1.78534798534799,35.8420522245578
1743442773276,13:39:33.276,-1,-1,1946.52014652015,1.79267399267399,35.8420522245578
1743442773296,13:39:33.296,-1,-1,1803.663003663,1.8,35.8420522245578
1743442773315,13:39:33.315,-1,-1,1663.00366300366,1.8029304029304,35.8420522245578
1743442773335,13:39:33.335,-1,-1,1485.71428571429,1.8,35.8420522245578
1743442773354,13:39:33.354,-1,-1,1305.49450549451,1.8029304029304,35.8420522245578
1743442773374,13:39:33.374,-1,-1,1183.15018315018,1.8029304029304,35.8420522245578
1743442773393,13:39:33.393,-1,-1,1183.15018315018,1.8029304029304,35.8420522245578
1743442773413,13:39:33.413,-1,-1,1110.62271062271,1.8043956043956,35.8420522245578
1743442773432,13:39:33.432,-1,-1,1154.57875457875,1.7985347985348,35.8420522245578
1743442773452,13:39:33.452,118,-1,1226.37362637363,1.79267399267399,35.8420522245578
1743442773471,13:39:33.471,118,-1,1298.1684981685,1.79267399267399,35.8420522245578
1743442773491,13:39:33.491,118,-1,1320.14652014652,1.7956043956044,35.8420522245578
1743442773510,13:39:33.510,118,-1,1301.8315018315,1.7956043956044,35.8420522245578
1743442773530,13:39:33.530,118,-1,1285.71428571429,1.81172161172161,35.8420522245578
1743442773549,13:39:33.549,118,-1,1347.25274725275,1.82930402930403,35.8420522245578
1743442773569,13:39:33.569,118,-1,1513.55311355311,1.85421245421245,35.8420522245578
1743442773588,13:39:33.588,118,-1,1727.47252747253,1.86446886446886,35.8420522245578
1743442773608,13:39:33.608,118,-1,1923.07692307692,1.86593406593407,35.8420522245578
1743442773627,13:39:33.627,118,-1,2075.45787545788,1.86007326007326,35.8420522245578
1743442773647,13:39:33.647,118,-1,2165.56776556777,1.87032967032967,35.8420522245578
1743442773666,13:39:33.666,118,-1,2139.19413919414,1.87472527472527,35.8420522245578
1743442773686,13:39:33.686,118,-1,1990.47619047619,1.87619047619048,35.8420522245578
1743442773705,13:39:33.705,118,-1,1788.27838827839,1.88205128205128,35.8420522245578
1743442773725,13:39:33.725,118,-1,1550.91575091575,1.87912087912088,35.8420522245578
1743442773744,13:39:33.744,118,-1,1376.55677655678,1.88498168498169,35.8420522245578
1743442773764,13:39:33.764,118,-1,1276.92307692308,1.9054945054945,35.8420522245578
1743442773783,13:39:33.783,118,-1,1104.7619047619,1.91428571428571,35.8420522245578
1743442773803,13:39:33.803,118,-1,857.875457875458,1.92454212454212,35.8420522245578
1743442773822,13:39:33.822,118,-1,716.483516483516,1.94065934065934,35.8420522245578
1743442773842,13:39:33.842,118,-1,714.285714285714,1.94065934065934,35.8420522245578
1743442773861,13:39:33.861,118,-1,830.03663003663,1.94358974358974,35.8420522245578
1743442773881,13:39:33.881,118,-1,1047.61904761905,1.94652014652015,35.8420522245578
1743442773900,13:39:33.900,118,-1,1268.13186813187,1.94945054945055,35.8420522245578
1743442773920,13:39:33.920,118,-1,1452.01465201465,1.94505494505494,35.8420522245578
1743442773939,13:39:33.939,118,-1,1599.2673992674,1.94065934065934,35.8670547892107
1743442773959,13:39:33.959,118,-1,1696.7032967033,1.94065934065934,35.8670547892107
1743442773978,13:39:33.978,118,-1,1758.24175824176,1.94798534798535,35.8670547892107
1743442773998,13:39:33.998,103,-1,1772.89377289377,1.95091575091575,35.8670547892107
1743442774017,13:39:34.017,103,-1,1755.31135531136,1.95970695970696,35.8670547892107
1743442774037,13:39:34.037,103,-1,1734.79853479853,1.97728937728938,35.8670547892107
1743442774056,13:39:34.056,103,-1,1705.49450549451,1.98021978021978,35.8670547892107
1743442774076,13:39:34.076,103,-1,1673.99267399267,1.97728937728938,35.8670547892107
1743442774095,13:39:34.095,103,-1,1657.14285714286,1.97289377289377,35.8670547892107
1743442774115,13:39:34.115,103,-1,1690.10989010989,1.96556776556777,35.8670547892107
1743442774134,13:39:34.134,103,-1,1797.0695970696,1.96263736263736,35.8670547892107
1743442774154,13:39:34.154,103,-1,1944.32234432234,1.95824175824176,35.8670547892107
1743442774173,13:39:34.173,103,-1,2046.15384615385,1.95824175824176,35.8670547892107
1743442774193,13:39:34.193,103,-1,2112.82051282051,1.96117216117216,35.8670547892107
1743442774212,13:39:34.212,103,-1,2173.62637362637,1.96117216117216,35.8670547892107
1743442774232,13:39:34.232,103,-1,2238.82783882784,1.95677655677656,35.8670547892107
1743442774251,13:39:34.251,103,-1,2265.93406593407,1.94945054945055,35.8670547892107
1743442774271,13:39:34.271,103,-1,2252.74725274725,1.94945054945055,35.8670547892107
1743442774290,13:39:34.290,103,-1,2223.44322344322,1.94945054945055,35.8670547892107
1743442774310,13:39:34.310,103,-1,2213.18681318681,1.95824175824176,35.8670547892107
1743442774329,13:39:34.329,103,-1,2168.49816849817,1.96117216117216,35.8670547892107
1743442774349,13:39:34.349,103,-1,2059.34065934066,1.95238095238095,35.8670547892107
1743442774368,13:39:34.368,103,-1,1945.78754578755,1.94652014652015,35.8670547892107
1743442774388,13:39:34.388,103,-1,1837.36263736264,1.92893772893773,35.8670547892107
1743442774407,13:39:34.407,103,-1,1729.67032967033,1.92161172161172,35.8670547892107
1743442774427,13:39:34.427,103,-1,1668.13186813187,1.91868131868132,35.8670547892107
1743442774446,13:39:34.446,103,-1,1644.68864468864,1.92307692307692,35.8670547892107
1743442774466,13:39:34.466,103,-1,1643.22344322344,1.92161172161172,35.8670547892107
1743442774485,13:39:34.485,103,-1,1631.50183150183,1.94212454212454,35.8670547892107
1743442774505,13:39:34.505,103,-1,1616.84981684982,1.96556776556777,35.8670547892107
1743442774524,13:39:34.524,103,-1,1595.6043956044,1.97728937728938,35.8670547892107
1743442774544,13:39:34.544,110,-1,1546.52014652015,1.98315018315018,35.8670547892107
1743442774563,13:39:34.563,110,-1,1477.65567765568,1.98168498168498,35.8670547892107
1743442774583,13:39:34.583,110,-1,1385.34798534799,1.98021978021978,35.8670547892107
1743442774602,13:39:34.602,110,-1,1293.77289377289,1.98168498168498,35.8670547892107
1743442774622,13:39:34.622,110,-1,1263.00366300366,1.99047619047619,35.8670547892107
1743442774641,13:39:34.641,110,-1,1337.72893772894,1.99340659340659,35.8670547892107
1743442774661,13:39:34.661,110,-1,1526.00732600733,2.01684981684982,35.8670547892107
1743442774680,13:39:34.680,110,-1,1785.34798534799,2.03296703296703,35.8670547892107
1743442774700,13:39:34.700,110,-1,2060.80586080586,2.03443223443223,35.8670547892107
1743442774719,13:39:34.719,110,-1,2307.69230769231,2.03589743589744,35.8670547892107
1743442774739,13:39:34.739,110,-1,2596.336996337,2.03736263736264,35.8670547892107
1743442774758,13:39:34.758,110,-1,2808.79120879121,2.03736263736264,35.8670547892107
1743442774778,13:39:34.778,110,-1,2808.79120879121,2.02124542124542,35.8670547892107
1743442774797,13:39:34.797,110,-1,2808.79120879121,2.01391941391941,35.8670547892107
1743442774817,13:39:34.817,110,-1,2809.52380952381,2.01391941391941,35.8670547892107
1743442774836,13:39:34.836,110,-1,2808.79120879121,2.01098901098901,35.8670547892107
1743442774856,13:39:34.856,110,-1,2809.52380952381,2.0007326007326,35.8670547892107
1743442774875,13:39:34.875,110,-1,2808.79120879121,1.99194139194139,35.8670547892107
1743442774895,13:39:34.895,110,-1,2641.75824175824,1.98168498168498,35.8670547892107
1743442774914,13:39:34.914,110,-1,2114.28571428571,1.98021978021978,35.8670547892107
1743442774934,13:39:34.934,110,-1,1660.80586080586,1.98168498168498,35.8820562581532
1743442774953,13:39:34.953,110,-1,1366.30036630037,1.98021978021978,35.8820562581532
1743442774973,13:39:34.973,110,-1,1224.90842490842,1.97142857142857,35.8820562581532
1743442774992,13:39:34.992,110,-1,1216.84981684982,1.96703296703297,35.8820562581532
1743442775012,13:39:35.012,110,-1,1263.73626373626,1.96410256410256,35.8820562581532
1743442775031,13:39:35.031,110,-1,1353.11355311355,1.97435897435897,35.8820562581532
1743442775051,13:39:35.051,110,-1,1465.93406593407,1.97875457875458,35.8820562581532
1743442775070,13:39:35.070,110,-1,1585.34798534799,1.98021978021978,35.8820562581532
1743442775090,13:39:35.090,110,-1,1701.8315018315,1.97875457875458,35.8820562581532
1743442775109,13:39:35.109,110,-1,1813.91941391941,1.98168498168498,35.8820562581532
1743442775129,13:39:35.129,110,-1,1841.75824175824,1.97289377289377,35.8820562581532
1743442775148,13:39:35.148,110,-1,1777.28937728938,1.98021978021978,35.8820562581532
1743442775168,13:39:35.168,110,-1,1688.64468864469,1.99194139194139,35.8820562581532
1743442775187,13:39:35.187,110,-1,1635.89743589744,1.99340659340659,35.8820562581532
1743442775207,13:39:35.207,110,-1,1620.51282051282,1.99194139194139,35.8820562581532
1743442775226,13:39:35.226,110,-1,1617.58241758242,1.98608058608059,35.8820562581532
1743442775246,13:39:35.246,110,-1,1577.28937728938,1.98168498168498,35.8820562581532
1743442775265,13:39:35.265,110,-1,1475.45787545788,1.97728937728938,35.8820562581532
1743442775285,13:39:35.285,110,-1,1395.6043956044,1.97875457875458,35.8820562581532
1743442775304,13:39:35.304,110,-1,1396.336996337,1.98021978021978,35.8820562581532
1743442775324,13:39:35.324,110,-1,1441.75824175824,1.97875457875458,35.8820562581532
1743442775343,13:39:35.343,110,-1,1535.53113553114,1.98901098901099,35.8820562581532
1743442775363,13:39:35.363,110,-1,1697.4358974359,1.99340659340659,35.8820562581532
1743442775382,13:39:35.382,110,-1,1870.32967032967,1.996336996337,35.8820562581532
1743442775402,13:39:35.402,110,-1,1964.10256410256,1.996336996337,35.8820562581532
1743442775421,13:39:35.421,110,-1,1957.50915750916,2.0007326007326,35.8820562581532
1743442775441,13:39:35.441,110,-1,1892.30769230769,2.00659340659341,35.8820562581532
1743442775460,13:39:35.460,110,-1,1857.87545787546,2.01684981684982,35.8820562581532
1743442775480,13:39:35.480,110,-1,1836.63003663004,2.00805860805861,35.8820562581532
1743442775499,13:39:35.499,110,-1,1756.77655677656,1.98315018315018,35.8820562581532
1743442775519,13:39:35.519,110,-1,1662.27106227106,1.98608058608059,35.8820562581532
1743442775538,13:39:35.538,110,-1,1578.02197802198,1.99340659340659,35.8820562581532
1743442775558,13:39:35.558,110,-1,1498.1684981685,1.98315018315018,35.8820562581532
1743442775577,13:39:35.577,110,-1,1403.663003663,1.97435897435897,35.8820562581532
1743442775597,13:39:35.597,110,-1,1305.49450549451,1.97875457875458,35.8820562581532
1743442775616,13:39:35.616,118,-1,1215.38461538462,1.99194139194139,35.8820562581532
1743442775636,13:39:35.636,118,-1,1153.11355311355,2.0007326007326,35.8820562581532
1743442775655,13:39:35.655,118,-1,1120.87912087912,2.00512820512821,35.8820562581532
1743442775675,13:39:35.675,118,-1,1186.81318681319,2.00659340659341,35.8820562581532
1743442775694,13:39:35.694,118,-1,1392.67399267399,2.00659340659341,35.8820562581532
1743442775714,13:39:35.714,118,-1,1631.50183150183,1.98754578754579,35.8820562581532
1743442775733,13:39:35.733,118,-1,1836.63003663004,2.01538461538462,35.8820562581532
1743442775753,13:39:35.753,118,-1,2035.89743589744,2.03003663003663,35.8820562581532
1743442775772,13:39:35.772,118,-1,2197.0695970696,2.02857142857143,35.8820562581532
1743442775792,13:39:35.792,118,-1,2237.36263736264,2.02271062271062,35.8820562581532
1743442775811,13:39:35.811,118,-1,2141.39194139194,2.01098901098901,35.8820562581532
1743442775831,13:39:35.831,118,-1,2027.10622710623,2.0021978021978,35.8820562581532
1743442775850,13:39:35.850,118,-1,1965.56776556777,2.00805860805861,35.8820562581532
1743442775870,13:39:35.870,118,-1,1951.64835164835,2.01538461538462,35.8820562581532
1743442775889,13:39:35.889,118,-1,1922.34432234432,2.01978021978022,35.8820562581532
1743442775909,13:39:35.909,118,-1,1860.07326007326,2.02271062271062,35.8820562581532
1743442775928,13:39:35.928,118,-1,1775.82417582418,2.02710622710623,35.9070585899753
1743442775948,13:39:35.948,118,-1,1703.2967032967,2.04322344322344,35.9070585899753
1743442775967,13:39:35.967,118,-1,1719.41391941392,2.06227106227106,35.9070585899753
1743442775987,13:39:35.987,118,-1,1873.26007326007,2.08131868131868,35.9070585899753
1743442776006,13:39:36.006,118,-1,2069.59706959707,2.07692307692308,35.9070585899753
1743442776026,13:39:36.026,118,-1,2153.84615384615,2.07985347985348,35.9070585899753
1743442776045,13:39:36.045,118,-1,2089.37728937729,2.09304029304029,35.9070585899753
1743442776065,13:39:36.065,118,-1,1846.15384615385,2.1032967032967,35.9070585899753
1743442776084,13:39:36.084,118,-1,1514.28571428571,2.11062271062271,35.9070585899753
1743442776104,13:39:36.104,118,-1,1232.23443223443,2.11355311355311,35.9070585899753
1743442776123,13:39:36.123,118,-1,1098.1684981685,2.11794871794872,35.9070585899753
1743442776143,13:39:36.143,118,-1,1080.58608058608,2.11794871794872,35.9070585899753
1743442776162,13:39:36.162,118,-1,1125.27472527473,2.12234432234432,35.9070585899753
1743442776182,13:39:36.182,106,-1,1283.51648351648,2.12380952380952,35.9070585899753
1743442776201,13:39:36.201,106,-1,1585.34798534799,2.12234432234432,35.9070585899753
1743442776221,13:39:36.221,106,-1,1926.00732600733,2.12234432234432,35.9070585899753
1743442776240,13:39:36.240,106,-1,2227.10622710623,2.12380952380952,35.9070585899753
1743442776260,13:39:36.260,106,-1,2441.02564102564,2.12527472527472,35.9070585899753
1743442776279,13:39:36.279,106,-1,2563.36996336996,2.12820512820513,35.9070585899753
1743442776299,13:39:36.299,106,-1,2628.57142857143,2.12820512820513,35.9070585899753
1743442776318,13:39:36.318,106,-1,2645.42124542125,2.12967032967033,35.9070585899753
1743442776338,13:39:36.338,106,-1,2597.8021978022,2.11941391941392,35.9070585899753
1743442776357,13:39:36.357,106,-1,2482.05128205128,2.12527472527472,35.9070585899753
1743442776377,13:39:36.377,106,-1,2292.30769230769,2.13992673992674,35.9070585899753
1743442776396,13:39:36.396,106,-1,1947.98534798535,2.14139194139194,35.9070585899753
1743442776416,13:39:36.416,106,-1,1488.64468864469,2.14578754578755,35.9070585899753
1743442776435,13:39:36.435,106,-1,1073.26007326007,2.14139194139194,35.9070585899753
1743442776455,13:39:36.455,106,-1,814.652014652015,2.13699633699634,35.9070585899753
1743442776474,13:39:36.474,106,-1,570.695970695971,2.12967032967033,35.9070585899753
1743442776494,13:39:36.494,106,-1,354.578754578755,2.13260073260073,35.9070585899753
1743442776513,13:39:36.513,106,-1,271.794871794872,2.13699633699634,35.9070585899753
1743442776533,13:39:36.533,106,-1,313.553113553114,2.14432234432234,35.9070585899753
1743442776552,13:39:36.552,106,-1,386.813186813187,2.15018315018315,35.9070585899753
1743442776572,13:39:36.572,106,-1,487.912087912088,2.15750915750916,35.9070585899753
1743442776591,13:39:36.591,106,-1,632.967032967033,2.16336996336996,35.9070585899753
1743442776611,13:39:36.611,106,-1,816.849816849817,2.16483516483516,35.9070585899753
1743442776630,13:39:36.630,106,-1,999.267399267399,2.16630036630037,35.9070585899753
1743442776650,13:39:36.650,106,-1,1160.43956043956,2.17362637362637,35.9070585899753
1743442776669,13:39:36.669,106,-1,1367.03296703297,2.17216117216117,35.9070585899753
1743442776689,13:39:36.689,106,-1,1687.91208791209,2.17655677655678,35.9070585899753
1743442776708,13:39:36.708,106,-1,2056.41025641026,2.16483516483516,35.9070585899753
1743442776728,13:39:36.728,106,-1,2382.41758241758,2.15604395604396,35.9070585899753
1743442776747,13:39:36.747,106,-1,2622.71062271062,2.15604395604396,35.9070585899753
1743442776767,13:39:36.767,106,-1,2755.31135531136,2.15897435897436,35.9070585899753
1743442776786,13:39:36.786,106,-1,2791.94139194139,2.15311355311355,35.9070585899753
1743442776806,13:39:36.806,106,-1,2722.34432234432,2.15604395604396,35.9070585899753
1743442776825,13:39:36.825,106,-1,2597.8021978022,2.15604395604396,35.9070585899753
1743442776845,13:39:36.845,106,-1,2450.54945054945,2.16043956043956,35.9070585899753
1743442776864,13:39:36.864,106,-1,2285.71428571429,2.15750915750916,35.9070585899753
1743442776884,13:39:36.884,106,-1,2101.8315018315,2.15750915750916,35.9070585899753
1743442776903,13:39:36.903,106,-1,1878.38827838828,2.17509157509157,35.9070585899753
1743442776923,13:39:36.923,106,-1,1634.43223443223,2.18974358974359,35.9320607762784
1743442776942,13:39:36.942,106,-1,1419.04761904762,2.2014652014652,35.9320607762784
1743442776962,13:39:36.962,106,-1,1299.6336996337,2.22197802197802,35.9320607762784
1743442776981,13:39:36.981,106,-1,1221.24542124542,2.24688644688645,35.9320607762784
1743442777001,13:39:37.001,106,-1,1145.78754578755,2.26886446886447,35.9320607762784
1743442777020,13:39:37.020,106,-1,1097.4358974359,2.26446886446886,35.9320607762784
1743442777040,13:39:37.040,106,-1,1106.22710622711,2.27472527472527,35.9320607762784
1743442777059,13:39:37.059,106,-1,1128.20512820513,2.28058608058608,35.9320607762784
1743442777079,13:39:37.079,106,-1,1107.69230769231,2.28791208791209,35.9320607762784
1743442777098,13:39:37.098,106,-1,1087.17948717949,2.2967032967033,35.9320607762784
1743442777118,13:39:37.118,106,-1,1068.86446886447,2.30695970695971,35.9320607762784
1743442777137,13:39:37.137,106,-1,1046.15384615385,2.31135531135531,35.9320607762784
1743442777157,13:39:37.157,118,-1,1043.22344322344,2.32014652014652,35.9320607762784
1743442777176,13:39:37.176,118,-1,1208.05860805861,2.32893772893773,35.9320607762784
1743442777196,13:39:37.196,118,-1,1649.81684981685,2.33919413919414,35.9320607762784
1743442777216,13:39:37.215,118,-1,2289.37728937729,2.35091575091575,35.9320607762784
1743442777235,13:39:37.235,118,-1,2808.79120879121,2.34945054945055,35.9320607762784
1743442777255,13:39:37.254,118,-1,2808.79120879121,2.34505494505494,35.9320607762784
1743442777274,13:39:37.274,118,-1,2808.79120879121,2.34505494505494,35.9320607762784
1743442777294,13:39:37.293,118,-1,2808.79120879121,2.34652014652015,35.9320607762784
1743442777313,13:39:37.313,118,-1,2808.79120879121,2.35091575091575,35.9320607762784
1743442777333,13:39:37.333,118,-1,2808.79120879121,2.35091575091575,35.9320607762784
1743442777352,13:39:37.352,118,-1,2586.08058608059,2.34358974358974,35.9320607762784
1743442777372,13:39:37.372,118,-1,2138.46153846154,2.33479853479853,35.9320607762784
1743442777391,13:39:37.391,118,-1,1707.69230769231,2.33040293040293,35.9320607762784
1743442777411,13:39:37.411,118,-1,1326.00732600733,2.32893772893773,35.9320607762784
1743442777430,13:39:37.430,118,-1,1003.663003663,2.32893772893773,35.9320607762784
1743442777450,13:39:37.450,118,-1,795.604395604396,2.33186813186813,35.9320607762784
1743442777469,13:39:37.469,118,-1,723.076923076923,2.33479853479853,35.9320607762784
1743442777489,13:39:37.489,118,-1,742.857142857143,2.34212454212454,35.9320607762784
1743442777508,13:39:37.508,118,-1,819.047619047619,2.35091575091575,35.9320607762784
1743442777528,13:39:37.528,118,-1,939.194139194139,2.35677655677656,35.9320607762784
1743442777547,13:39:37.547,118,-1,1117.94871794872,2.35384615384615,35.9320607762784
1743442777567,13:39:37.567,118,-1,1275.45787545788,2.33333333333333,35.9320607762784
1743442777586,13:39:37.586,128,-1,1365.56776556777,2.33186813186813,35.9320607762784
1743442777606,13:39:37.606,128,-1,1318.68131868132,2.33479853479853,35.9320607762784
1743442777625,13:39:37.625,128,-1,1103.2967032967,2.33626373626374,35.9320607762784
1743442777645,13:39:37.645,128,-1,783.882783882784,2.34065934065934,35.9320607762784
1743442777664,13:39:37.664,128,-1,561.172161172161,2.34798534798535,35.9320607762784
1743442777684,13:39:37.684,128,-1,597.069597069597,2.34505494505494,35.9320607762784
1743442777703,13:39:37.703,128,-1,745.787545787546,2.34065934065934,35.9320607762784
1743442777723,13:39:37.723,128,-1,849.81684981685,2.34065934065934,35.9320607762784
1743442777742,13:39:37.742,128,-1,954.578754578755,2.34505494505494,35.9320607762784
1743442777762,13:39:37.762,128,-1,1089.37728937729,2.34798534798535,35.9320607762784
1743442777781,13:39:37.781,128,-1,1248.35164835165,2.35677655677656,35.9320607762784
1743442777801,13:39:37.801,128,-1,1427.10622710623,2.37289377289377,35.9320607762784
1743442777820,13:39:37.820,128,-1,1602.9304029304,2.38754578754579,35.9320607762784
1743442777840,13:39:37.840,128,-1,1750.91575091575,2.38168498168498,35.9320607762784
1743442777859,13:39:37.859,128,-1,1769.23076923077,2.396336996337,35.9320607762784
1743442777879,13:39:37.879,128,-1,1742.85714285714,2.40805860805861,35.9320607762784
1743442777898,13:39:37.898,128,-1,1706.22710622711,2.40805860805861,35.9320607762784
1743442777918,13:39:37.918,128,-1,1679.12087912088,2.40659340659341,35.9370611960767
1743442777937,13:39:37.937,128,-1,1680.58608058608,2.40952380952381,35.9370611960767
1743442777957,13:39:37.957,128,-1,1668.13186813187,2.403663003663,35.9370611960767
1743442777976,13:39:37.976,128,-1,1626.37362637363,2.4021978021978,35.9370611960767
1743442777996,13:39:37.996,128,-1,1536.26373626374,2.403663003663,35.9370611960767
1743442778015,13:39:38.015,128,-1,1483.51648351648,2.40952380952381,35.9370611960767
1743442778035,13:39:38.035,128,-1,1459.34065934066,2.39047619047619,35.9370611960767
1743442778054,13:39:38.054,128,-1,1438.82783882784,2.38608058608059,35.9370611960767
1743442778074,13:39:38.074,128,-1,1406.59340659341,2.38461538461538,35.9370611960767
1743442778093,13:39:38.093,128,-1,1329.67032967033,2.40952380952381,35.9370611960767
1743442778113,13:39:38.113,128,-1,1222.71062271062,2.41684981684982,35.9370611960767
1743442778132,13:39:38.132,128,-1,1199.2673992674,2.42564102564103,35.9370611960767
1743442778152,13:39:38.152,128,-1,1236.63003663004,2.42710622710623,35.9370611960767
1743442778171,13:39:38.171,140,-1,1353.84615384615,2.42710622710623,35.9370611960767
1743442778191,13:39:38.191,140,-1,1546.52014652015,2.42271062271062,35.9370611960767
1743442778210,13:39:38.210,140,-1,1756.77655677656,2.39487179487179,35.9370611960767
1743442778230,13:39:38.230,140,-1,1934.79853479853,2.38901098901099,35.9370611960767
1743442778249,13:39:38.249,140,-1,2021.97802197802,2.38461538461538,35.9370611960767
1743442778269,13:39:38.269,140,-1,2082.05128205128,2.38461538461538,35.9370611960767
1743442778288,13:39:38.288,140,-1,2117.94871794872,2.40659340659341,35.9370611960767
1743442778308,13:39:38.308,140,-1,2150.18315018315,2.42271062271062,35.9370611960767
1743442778327,13:39:38.327,140,-1,2139.19413919414,2.42710622710623,35.9370611960767
1743442778347,13:39:38.347,140,-1,2065.93406593407,2.42710622710623,35.9370611960767
1743442778366,13:39:38.366,140,-1,1956.04395604396,2.43150183150183,35.9370611960767
1743442778386,13:39:38.386,140,-1,1876.92307692308,2.44029304029304,35.9370611960767
1743442778405,13:39:38.405,140,-1,1850.54945054945,2.45934065934066,35.9370611960767
1743442778425,13:39:38.425,140,-1,1858.60805860806,2.47545787545788,35.9370611960767
1743442778444,13:39:38.444,140,-1,1855.67765567766,2.46666666666667,35.9370611960767
1743442778464,13:39:38.464,140,-1,1786.81318681319,2.45201465201465,35.9370611960767
1743442778483,13:39:38.483,140,-1,1629.30402930403,2.44761904761905,35.9370611960767
1743442778503,13:39:38.503,140,-1,1455.67765567766,2.44615384615385,35.9370611960767
1743442778522,13:39:38.522,140,-1,1304.7619047619,2.44615384615385,35.9370611960767
1743442778542,13:39:38.542,140,-1,1161.90476190476,2.44322344322344,35.9370611960767
1743442778561,13:39:38.561,140,-1,1005.12820512821,2.43443223443223,35.9370611960767
1743442778581,13:39:38.581,140,-1,872.527472527472,2.42857142857143,35.9370611960767
1743442778600,13:39:38.600,140,-1,769.230769230769,2.42564102564103,35.9370611960767
1743442778620,13:39:38.620,140,-1,693.772893772894,2.42710622710623,35.9370611960767
1743442778639,13:39:38.639,140,-1,657.142857142857,2.42564102564103,35.9370611960767
1743442778659,13:39:38.659,140,-1,739.194139194139,2.43150183150183,35.9370611960767
1743442778678,13:39:38.678,140,-1,1013.91941391941,2.43150183150183,35.9370611960767
1743442778698,13:39:38.698,140,-1,1410.98901098901,2.42710622710623,35.9370611960767
1743442778717,13:39:38.717,140,-1,1817.58241758242,2.42710622710623,35.9370611960767
1743442778737,13:39:38.737,-1,-1,2112.82051282051,2.45347985347985,35.9370611960767
1743442778756,13:39:38.756,-1,-1,2170.69597069597,2.46373626373626,35.9370611960767
1743442778776,13:39:38.776,-1,-1,1961.17216117216,2.46666666666667,35.9370611960767
1743442778795,13:39:38.795,-1,-1,1681.31868131868,2.47545787545788,35.9370611960767
1743442778815,13:39:38.815,-1,-1,1378.75457875458,2.47985347985348,35.9370611960767
1743442778834,13:39:38.834,-1,-1,998.534798534798,2.47106227106227,35.9370611960767
1743442778854,13:39:38.854,-1,-1,678.388278388278,2.46813186813187,35.9370611960767
1743442778873,13:39:38.873,-1,-1,427.838827838828,2.47838827838828,35.9370611960767
1743442778893,13:39:38.893,-1,-1,241.025641025641,2.48131868131868,35.9370611960767
1743442778912,13:39:38.912,-1,-1,122.344322344322,2.47545787545788,35.9570628170623
1743442778932,13:39:38.932,-1,-1,40.2930402930403,2.47838827838828,35.9570628170623
1743442778951,13:39:38.951,-1,-1,0,2.48571428571429,35.9570628170623
1743442778971,13:39:38.971,-1,-1,82.7838827838828,2.49304029304029,35.9570628170623
1743442778990,13:39:38.990,-1,-1,297.435897435897,2.4974358974359,35.9570628170623
1743442779010,13:39:39.010,-1,-1,600.732600732601,2.49157509157509,35.9570628170623
1743442779029,13:39:39.029,-1,-1,896.703296703297,2.5047619047619,35.9570628170623
1743442779049,13:39:39.049,-1,-1,1150.91575091575,2.51794871794872,35.9570628170623
1743442779068,13:39:39.068,-1,-1,1347.98534798535,2.52527472527472,35.9570628170623
1743442779088,13:39:39.088,-1,-1,1463.00366300366,2.53406593406593,35.9570628170623
1743442779107,13:39:39.107,-1,-1,1524.54212454212,2.54139194139194,35.9570628170623
1743442779127,13:39:39.127,-1,-1,1509.15750915751,2.54432234432234,35.9570628170623
1743442779146,13:39:39.146,-1,-1,1469.59706959707,2.54725274725275,35.9570628170623
1743442779166,13:39:39.166,-1,-1,1527.47252747253,2.55311355311355,35.9570628170623
1743442779185,13:39:39.185,-1,-1,1744.32234432234,2.55018315018315,35.9570628170623
1743442779205,13:39:39.205,-1,-1,1997.0695970696,2.55164835164835,35.9570628170623
1743442779224,13:39:39.224,-1,-1,2170.69597069597,2.56190476190476,35.9570628170623
1743442779244,13:39:39.244,-1,-1,2246.15384615385,2.56483516483516,35.9570628170623
1743442779263,13:39:39.263,-1,-1,2273.26007326007,2.56923076923077,35.9570628170623
1743442779283,13:39:39.283,-1,-1,2265.93406593407,2.58974358974359,35.9570628170623
1743442779302,13:39:39.302,-1,-1,2227.10622710623,2.5970695970696,35.9570628170623
1743442779322,13:39:39.322,-1,-1,2177.28937728938,2.5985347985348,35.9570628170623
1743442779341,13:39:39.341,-1,-1,2117.94871794872,2.5985347985348,35.9570628170623
1743442779361,13:39:39.361,106,-1,1994.87179487179,2.6,35.9570628170623
1743442779380,13:39:39.380,106,-1,1791.94139194139,2.6,35.9570628170623
1743442779400,13:39:39.400,106,-1,1545.05494505494,2.5985347985348,35.9570628170623
1743442779419,13:39:39.419,106,-1,1295.9706959707,2.6014652014652,35.9570628170623
1743442779439,13:39:39.439,106,-1,1093.04029304029,2.60879120879121,35.9570628170623
1743442779458,13:39:39.458,106,-1,953.846153846154,2.60879120879121,35.9570628170623
1743442779478,13:39:39.478,106,-1,870.32967032967,2.6,35.9570628170623
1743442779497,13:39:39.497,106,-1,813.919413919414,2.58534798534799,35.9570628170623
1743442779517,13:39:39.517,106,-1,791.941391941392,2.5985347985348,35.9570628170623
1743442779536,13:39:39.536,106,-1,784.615384615385,2.60732600732601,35.9570628170623
1743442779556,13:39:39.556,106,-1,810.25641025641,2.6043956043956,35.9570628170623
1743442779575,13:39:39.575,106,-1,852.747252747253,2.5985347985348,35.9570628170623
1743442779595,13:39:39.595,106,-1,884.981684981685,2.59267399267399,35.9570628170623
1743442779614,13:39:39.614,106,-1,879.85347985348,2.58974358974359,35.9570628170623
1743442779634,13:39:39.634,106,-1,868.131868131868,2.58534798534799,35.9570628170623
1743442779653,13:39:39.653,106,-1,901.098901098901,2.58681318681319,35.9570628170623
1743442779673,13:39:39.673,106,-1,1049.08424908425,2.58827838827839,35.9570628170623
1743442779692,13:39:39.692,106,-1,1328.93772893773,2.5970695970696,35.9570628170623
1743442779712,13:39:39.712,-1,-1,1652.01465201465,2.6014652014652,35.9570628170623
1743442779731,13:39:39.731,-1,-1,1912.82051282051,2.6043956043956,35.9570628170623
1743442779751,13:39:39.751,-1,-1,2106.95970695971,2.61318681318681,35.9570628170623
1743442779770,13:39:39.770,-1,-1,2245.42124542125,2.62637362637363,35.9570628170623
1743442779790,13:39:39.790,-1,-1,2312.08791208791,2.63809523809524,35.9570628170623
1743442779809,13:39:39.809,-1,-1,2322.34432234432,2.64688644688645,35.9570628170623
1743442779829,13:39:39.829,-1,-1,2289.37728937729,2.64981684981685,35.9570628170623
1743442779848,13:39:39.848,-1,-1,2202.9304029304,2.65274725274725,35.9570628170623
1743442779868,13:39:39.868,-1,-1,2044.68864468864,2.65274725274725,35.9570628170623
1743442779887,13:39:39.887,-1,-1,1803.663003663,2.65567765567766,35.9570628170623
1743442779907,13:39:39.907,-1,-1,1514.28571428571,2.65421245421245,35.9720639716834
1743442779926,13:39:39.926,-1,-1,1234.43223443223,2.64981684981685,35.9720639716834
1743442779946,13:39:39.946,-1,-1,1006.59340659341,2.64981684981685,35.9720639716834
1743442779965,13:39:39.965,-1,-1,868.131868131868,2.65274725274725,35.9720639716834
1743442779985,13:39:39.985,-1,-1,893.040293040293,2.66153846153846,35.9720639716834
1743442780004,13:39:40.004,-1,-1,1133.33333333333,2.68058608058608,35.9720639716834
1743442780024,13:39:40.024,-1,-1,1460.07326007326,2.67472527472527,35.9720639716834
1743442780043,13:39:40.043,-1,-1,1717.94871794872,2.67326007326007,35.9720639716834
1743442780063,13:39:40.063,-1,-1,1882.78388278388,2.67619047619048,35.9720639716834
1743442780082,13:39:40.082,-1,-1,1892.30769230769,2.68498168498168,35.9720639716834
1743442780102,13:39:40.102,-1,-1,1713.55311355311,2.69523809523809,35.9720639716834
1743442780121,13:39:40.121,-1,-1,1378.02197802198,2.6981684981685,35.9720639716834
1743442780141,13:39:40.141,-1,-1,1084.98168498169,2.69377289377289,35.9720639716834
1743442780160,13:39:40.160,-1,-1,1036.63003663004,2.68937728937729,35.9720639716834
1743442780180,13:39:40.180,-1,-1,1209.52380952381,2.68791208791209,35.9720639716834
1743442780199,13:39:40.199,-1,-1,1466.66666666667,2.68498168498168,35.9720639716834
1743442780219,13:39:40.219,-1,-1,1719.41391941392,2.68937728937729,35.9720639716834
1743442780238,13:39:40.238,-1,-1,1926.00732600733,2.69230769230769,35.9720639716834
1743442780258,13:39:40.258,-1,-1,2071.79487179487,2.69377289377289,35.9720639716834
1743442780277,13:39:40.277,-1,-1,2135.53113553114,2.6981684981685,35.9720639716834
1743442780297,13:39:40.297,-1,-1,2128.93772893773,2.69230769230769,35.9720639716834
1743442780316,13:39:40.316,-1,-1,2057.14285714286,2.68937728937729,35.9720639716834
1743442780336,13:39:40.336,-1,-1,1950.91575091575,2.68498168498168,35.9720639716834
1743442780355,13:39:40.355,-1,-1,1819.04761904762,2.67765567765568,35.9720639716834
1743442780375,13:39:40.375,-1,-1,1653.47985347985,2.66739926739927,35.9720639716834
1743442780394,13:39:40.394,-1,-1,1457.14285714286,2.63369963369963,35.9720639716834
1743442780414,13:39:40.414,-1,-1,1250.54945054945,2.66153846153846,35.9720639716834
1743442780433,13:39:40.433,-1,-1,998.534798534798,2.66446886446886,35.9720639716834
1743442780453,13:39:40.453,-1,-1,638.095238095238,2.67179487179487,35.9720639716834
1743442780472,13:39:40.472,-1,-1,235.897435897436,2.66153846153846,35.9720639716834
1743442780492,13:39:40.492,-1,-1,0,2.64542124542125,35.9720639716834
1743442780511,13:39:40.511,-1,-1,0,2.63076923076923,35.9720639716834
1743442780531,13:39:40.531,-1,-1,0,2.61611721611722,35.9720639716834
1743442780550,13:39:40.550,-1,-1,0,2.61465201465201,35.9720639716834
1743442780570,13:39:40.570,-1,-1,0,2.62197802197802,35.9720639716834
1743442780589,13:39:40.589,-1,-1,0,2.62490842490842,35.9720639716834
1743442780609,13:39:40.609,-1,-1,0,2.62930402930403,35.9720639716834
1743442780628,13:39:40.628,-1,-1,0,2.61465201465201,35.9720639716834
1743442780648,13:39:40.648,-1,-1,0,2.61904761904762,35.9720639716834
1743442780667,13:39:40.667,-1,-1,0,2.63663003663004,35.9720639716834
1743442780687,13:39:40.687,-1,-1,0,2.65714285714286,35.9720639716834
1743442780706,13:39:40.706,-1,-1,223.443223443223,2.66300366300366,35.9720639716834
1743442780726,13:39:40.726,-1,-1,1215.38461538462,2.67032967032967,35.9720639716834
1743442780745,13:39:40.745,-1,-1,2172.89377289377,2.67912087912088,35.9720639716834
1743442780765,13:39:40.765,-1,-1,2774.35897435897,2.68937728937729,35.9720639716834
1743442780784,13:39:40.784,-1,-1,2809.52380952381,2.68937728937729,35.9720639716834
1743442780804,13:39:40.804,-1,-1,2808.79120879121,2.68351648351648,35.9720639716834
1743442780823,13:39:40.823,-1,-1,2795.6043956044,2.67912087912088,35.9720639716834
1743442780843,13:39:40.843,-1,-1,2531.13553113553,2.67765567765568,35.9720639716834
1743442780862,13:39:40.862,-1,-1,2145.05494505494,2.68351648351648,35.9720639716834
1743442780882,13:39:40.882,-1,-1,1756.77655677656,2.68498168498168,35.9720639716834
1743442780901,13:39:40.901,-1,-1,1417.58241758242,2.68791208791209,36.002066123765
1743442780921,13:39:40.921,-1,-1,1139.92673992674,2.69230769230769,36.002066123765
1743442780940,13:39:40.940,-1,-1,938.461538461538,2.69377289377289,36.002066123765
1743442780960,13:39:40.960,-1,-1,810.25641025641,2.69377289377289,36.002066123765
1743442780979,13:39:40.979,-1,-1,719.413919413919,2.6967032967033,36.002066123765
1743442780999,13:39:40.999,-1,-1,658.608058608059,2.6981684981685,36.002066123765
1743442781018,13:39:41.018,-1,-1,639.560439560439,2.6981684981685,36.002066123765
1743442781038,13:39:41.038,-1,-1,640.29304029304,2.6981684981685,36.002066123765
1743442781057,13:39:41.057,-1,-1,645.421245421245,2.6967032967033,36.002066123765
1743442781077,13:39:41.077,-1,-1,624.175824175824,2.69377289377289,36.002066123765
1743442781096,13:39:41.096,-1,-1,603.663003663004,2.69523809523809,36.002066123765
1743442781116,13:39:41.116,-1,-1,619.78021978022,2.6981684981685,36.002066123765
1743442781135,13:39:41.135,-1,-1,756.776556776557,2.6967032967033,36.002066123765
1743442781155,13:39:41.155,-1,-1,1058.60805860806,2.69377289377289,36.002066123765
1743442781174,13:39:41.174,-1,-1,1471.06227106227,2.69230769230769,36.002066123765
1743442781194,13:39:41.194,-1,-1,1857.14285714286,2.69084249084249,36.002066123765
1743442781213,13:39:41.213,-1,-1,2131.13553113553,2.68937728937729,36.002066123765
1743442781233,13:39:41.233,-1,-1,2257.14285714286,2.68937728937729,36.002066123765
1743442781252,13:39:41.252,-1,-1,2249.08424908425,2.68498168498168,36.002066123765
1743442781272,13:39:41.272,-1,-1,2141.39194139194,2.67912087912088,36.002066123765
1743442781291,13:39:41.291,-1,-1,1978.02197802198,2.67326007326007,36.002066123765
1743442781311,13:39:41.311,-1,-1,1804.3956043956,2.67326007326007,36.002066123765
1743442781330,13:39:41.330,-1,-1,1635.16483516484,2.67326007326007,36.002066123765
1743442781350,13:39:41.350,-1,-1,1476.92307692308,2.67326007326007,36.002066123765
1743442781369,13:39:41.369,-1,-1,1309.15750915751,2.67179487179487,36.002066123765
1743442781389,13:39:41.389,-1,-1,1144.32234432234,2.66446886446886,36.002066123765
1743442781408,13:39:41.408,-1,-1,989.010989010989,2.65714285714286,36.002066123765
1743442781428,13:39:41.428,-1,-1,865.934065934066,2.65421245421245,36.002066123765
1743442781447,13:39:41.447,-1,-1,785.347985347985,2.65421245421245,36.002066123765
1743442781467,13:39:41.467,-1,-1,735.531135531136,2.65421245421245,36.002066123765
1743442781486,13:39:41.486,-1,-1,718.681318681319,2.65128205128205,36.002066123765
1743442781506,13:39:41.506,-1,-1,736.263736263736,2.66300366300366,36.002066123765
1743442781525,13:39:41.525,-1,-1,748.717948717949,2.66739926739927,36.002066123765
1743442781545,13:39:41.545,-1,-1,758.974358974359,2.66153846153846,36.002066123765
1743442781564,13:39:41.564,-1,-1,775.091575091575,2.64102564102564,36.002066123765
1743442781584,13:39:41.584,-1,-1,780.952380952381,2.62197802197802,36.002066123765
1743442781603,13:39:41.603,-1,-1,819.047619047619,2.6014652014652,36.002066123765
1743442781623,13:39:41.623,-1,-1,1002.1978021978,2.57216117216117,36.002066123765
1743442781642,13:39:41.642,-1,-1,1341.39194139194,2.54285714285714,36.002066123765
1743442781662,13:39:41.662,-1,-1,1750.18315018315,2.52527472527472,36.002066123765
1743442781681,13:39:41.681,-1,-1,2118.68131868132,2.51501831501831,36.002066123765
1743442781701,13:39:41.701,-1,-1,2372.89377289377,2.52527472527472,36.002066123765
1743442781720,13:39:41.720,-1,-1,2470.32967032967,2.52820512820513,36.002066123765
1743442781740,13:39:41.740,-1,-1,2432.23443223443,2.54139194139194,36.002066123765
1743442781759,13:39:41.759,-1,-1,2317.94871794872,2.56776556776557,36.002066123765
1743442781779,13:39:41.779,118,-1,2152.38095238095,2.58241758241758,36.002066123765
1743442781798,13:39:41.798,118,-1,1939.92673992674,2.58827838827839,36.002066123765
1743442781818,13:39:41.818,118,-1,1720.14652014652,2.53992673992674,36.002066123765
1743442781837,13:39:41.837,118,-1,1513.55311355311,2.50622710622711,36.002066123765
1743442781857,13:39:41.857,118,-1,1318.68131868132,2.48717948717949,36.002066123765
1743442781876,13:39:41.876,118,-1,1153.11355311355,2.51062271062271,36.002066123765
1743442781896,13:39:41.896,118,-1,1032.23443223443,2.53406593406593,36.0070664620725
1743442781915,13:39:41.915,118,-1,943.589743589744,2.55457875457875,36.0070664620725
1743442781935,13:39:41.935,118,-1,892.307692307692,2.56923076923077,36.0070664620725
1743442781954,13:39:41.954,118,-1,852.014652014652,2.58681318681319,36.0070664620725
1743442781974,13:39:41.974,118,-1,813.919413919414,2.6014652014652,36.0070664620725
1743442781993,13:39:41.993,118,-1,778.021978021978,2.58534798534799,36.0070664620725
1743442782013,13:39:42.013,118,-1,746.520146520146,2.56190476190476,36.0070664620725
1743442782032,13:39:42.032,118,-1,726.007326007326,2.58827838827839,36.0070664620725
1743442782052,13:39:42.052,118,-1,706.227106227106,2.61758241758242,36.0070664620725
1743442782071,13:39:42.071,118,-1,706.959706959707,2.63809523809524,36.0070664620725
1743442782091,13:39:42.091,118,-1,789.010989010989,2.65128205128205,36.0070664620725
1743442782110,13:39:42.110,118,-1,1026.37362637363,2.66007326007326,36.0070664620725
1743442782130,13:39:42.130,118,-1,1386.08058608059,2.66739926739927,36.0070664620725
1743442782149,13:39:42.149,118,-1,1779.48717948718,2.62637362637363,36.0070664620725
1743442782169,13:39:42.169,118,-1,2100.3663003663,2.55750915750916,36.0070664620725
1743442782188,13:39:42.188,118,-1,2282.78388278388,2.56336996336996,36.0070664620725
1743442782208,13:39:42.208,106,-1,2305.49450549451,2.57362637362637,36.0070664620725
1743442782227,13:39:42.227,106,-1,2203.663003663,2.57216117216117,36.0070664620725
1743442782247,13:39:42.247,106,-1,2020.51282051282,2.57655677655678,36.0070664620725
1743442782266,13:39:42.266,106,-1,1797.8021978022,2.58241758241758,36.0070664620725
1743442782286,13:39:42.286,106,-1,1561.90476190476,2.59120879120879,36.0070664620725
1743442782305,13:39:42.305,106,-1,1317.21611721612,2.6029304029304,36.0070664620725
1743442782325,13:39:42.325,106,-1,1109.15750915751,2.6043956043956,36.0070664620725
1743442782344,13:39:42.344,106,-1,962.637362637363,2.61025641025641,36.0070664620725
1743442782364,13:39:42.364,106,-1,871.794871794872,2.61758241758242,36.0070664620725
1743442782383,13:39:42.383,106,-1,835.164835164835,2.62637362637363,36.0070664620725
1743442782403,13:39:42.403,106,-1,830.03663003663,2.63369963369963,36.0070664620725
1743442782422,13:39:42.422,106,-1,842.490842490842,2.63956043956044,36.0070664620725
1743442782442,13:39:42.442,106,-1,850.549450549451,2.64688644688645,36.0070664620725
1743442782461,13:39:42.461,106,-1,841.758241758242,2.65128205128205,36.0070664620725
1743442782481,13:39:42.481,106,-1,817.582417582418,2.65128205128205,36.0070664620725
1743442782500,13:39:42.500,106,-1,785.347985347985,2.63663003663004,36.0070664620725
1743442782520,13:39:42.520,106,-1,751.648351648352,2.63369963369963,36.0070664620725
1743442782539,13:39:42.539,106,-1,728.937728937729,2.62344322344322,36.0070664620725
1743442782559,13:39:42.559,106,-1,758.974358974359,2.6014652014652,36.0070664620725
1743442782578,13:39:42.578,106,-1,920.14652014652,2.58827838827839,36.0070664620725
1743442782598,13:39:42.598,106,-1,1220.51282051282,2.59267399267399,36.0070664620725
1743442782617,13:39:42.617,106,-1,1586.08058608059,2.5970695970696,36.0070664620725
1743442782637,13:39:42.637,106,-1,1915.75091575092,2.61758241758242,36.0070664620725
1743442782656,13:39:42.656,106,-1,2123.07692307692,2.65714285714286,36.0070664620725
1743442782676,13:39:42.676,140,-1,2170.69597069597,2.68791208791209,36.0070664620725
1743442782695,13:39:42.695,140,-1,2095.9706959707,2.71135531135531,36.0070664620725
1743442782715,13:39:42.715,140,-1,1943.58974358974,2.72454212454212,36.0070664620725
1743442782734,13:39:42.734,140,-1,1748.71794871795,2.73919413919414,36.0070664620725
1743442782754,13:39:42.754,140,-1,1517.21611721612,2.75677655677656,36.0070664620725
1743442782773,13:39:42.773,140,-1,1292.30769230769,2.76703296703297,36.0070664620725
1743442782793,13:39:42.793,140,-1,1112.08791208791,2.77289377289377,36.0070664620725
1743442782812,13:39:42.812,140,-1,992.673992673993,2.78315018315018,36.0070664620725
1743442782832,13:39:42.832,140,-1,901.098901098901,2.78608058608059,36.0070664620725
1743442782851,13:39:42.851,140,-1,850.549450549451,2.78608058608059,36.0070664620725
1743442782871,13:39:42.871,140,-1,825.641025641026,2.78608058608059,36.0070664620725
1743442782890,13:39:42.890,140,-1,816.849816849817,2.78608058608059,36.032068066299
1743442782910,13:39:42.910,140,-1,797.069597069597,2.78608058608059,36.032068066299
1743442782929,13:39:42.929,140,-1,778.754578754579,2.78754578754579,36.032068066299
1743442782949,13:39:42.949,140,-1,753.113553113553,2.796336996337,36.032068066299
1743442782968,13:39:42.968,140,-1,710.622710622711,2.8007326007326,36.032068066299
1743442782988,13:39:42.988,140,-1,671.062271062271,2.80512820512821,36.032068066299
1743442783007,13:39:43.007,140,-1,658.608058608059,2.80659340659341,36.032068066299
1743442783027,13:39:43.027,140,-1,679.120879120879,2.80659340659341,36.032068066299
1743442783046,13:39:43.046,140,-1,797.069597069597,2.803663003663,36.032068066299
1743442783066,13:39:43.066,140,-1,1057.14285714286,2.7992673992674,36.032068066299
1743442783085,13:39:43.085,140,-1,1399.2673992674,2.7978021978022,36.032068066299
1743442783105,13:39:43.105,140,-1,1695.9706959707,2.79487179487179,36.032068066299
1743442783124,13:39:43.124,140,-1,1907.69230769231,2.79047619047619,36.032068066299
1743442783144,13:39:43.144,140,-1,1992.67399267399,2.78315018315018,36.032068066299
1743442783163,13:39:43.163,140,-1,1956.04395604396,2.76556776556777,36.032068066299
1743442783183,13:39:43.183,140,-1,1811.72161172161,2.75238095238095,36.032068066299
1743442783202,13:39:43.202,128,-1,1632.23443223443,2.74212454212454,36.032068066299
1743442783222,13:39:43.222,128,-1,1442.49084249084,2.73919413919414,36.032068066299
1743442783241,13:39:43.241,128,-1,1252.74725274725,2.73626373626374,36.032068066299
1743442783261,13:39:43.261,128,-1,1073.26007326007,2.73333333333333,36.032068066299
1743442783280,13:39:43.280,128,-1,945.054945054945,2.73772893772894,36.032068066299
1743442783300,13:39:43.300,128,-1,884.249084249084,2.73772893772894,36.032068066299
1743442783319,13:39:43.319,128,-1,860.07326007326,2.73626373626374,36.032068066299
1743442783339,13:39:43.339,128,-1,866.666666666667,2.73626373626374,36.032068066299
1743442783358,13:39:43.358,128,-1,884.981684981685,2.73333333333333,36.032068066299
1743442783378,13:39:43.378,128,-1,895.238095238095,2.73333333333333,36.032068066299
1743442783397,13:39:43.397,128,-1,889.377289377289,2.72893772893773,36.032068066299
1743442783417,13:39:43.417,128,-1,882.783882783883,2.72454212454212,36.032068066299
1743442783436,13:39:43.436,128,-1,856.410256410256,2.72014652014652,36.032068066299
1743442783456,13:39:43.456,128,-1,821.245421245421,2.72747252747253,36.032068066299
1743442783475,13:39:43.475,128,-1,797.802197802198,2.73479853479853,36.032068066299
1743442783495,13:39:43.495,128,-1,798.534798534798,2.73772893772894,36.032068066299
1743442783514,13:39:43.514,128,-1,881.318681318681,2.73626373626374,36.032068066299
1743442783534,13:39:43.534,128,-1,1091.57509157509,2.73333333333333,36.032068066299
1743442783553,13:39:43.553,128,-1,1373.62637362637,2.73186813186813,36.032068066299
1743442783573,13:39:43.573,128,-1,1649.81684981685,2.72747252747253,36.032068066299
1743442783592,13:39:43.592,128,-1,1838.09523809524,2.72747252747253,36.032068066299
1743442783612,13:39:43.612,128,-1,1899.6336996337,2.72307692307692,36.032068066299
1743442783631,13:39:43.631,128,-1,1864.46886446886,2.72014652014652,36.032068066299
1743442783651,13:39:43.651,128,-1,1742.12454212454,2.71575091575092,36.032068066299
1743442783670,13:39:43.670,128,-1,1583.15018315018,2.71282051282051,36.032068066299
1743442783690,13:39:43.690,128,-1,1420.51282051282,2.70989010989011,36.032068066299
1743442783709,13:39:43.709,128,-1,1265.20146520147,2.70695970695971,36.032068066299
1743442783729,13:39:43.729,114,-1,1137.72893772894,2.7040293040293,36.032068066299
1743442783748,13:39:43.748,114,-1,1057.87545787546,2.6981684981685,36.032068066299
1743442783768,13:39:43.768,114,-1,1007.32600732601,2.69084249084249,36.032068066299
1743442783787,13:39:43.787,114,-1,978.754578754579,2.68058608058608,36.032068066299
1743442783807,13:39:43.807,114,-1,980.21978021978,2.67326007326007,36.032068066299
1743442783826,13:39:43.826,114,-1,975.091575091575,2.66593406593407,36.032068066299
1743442783846,13:39:43.846,114,-1,964.102564102564,2.65860805860806,36.032068066299
1743442783865,13:39:43.865,114,-1,944.322344322344,2.65860805860806,36.032068066299
1743442783885,13:39:43.885,114,-1,925.274725274725,2.65274725274725,36.0470689589856
1743442783904,13:39:43.904,114,-1,906.959706959707,2.64981684981685,36.0470689589856
1743442783924,13:39:43.924,114,-1,865.201465201465,2.64542124542125,36.0470689589856
1743442783943,13:39:43.943,114,-1,838.095238095238,2.64395604395604,36.0470689589856
1743442783963,13:39:43.963,114,-1,858.608058608059,2.63809523809524,36.0470689589856
1743442783982,13:39:43.982,114,-1,982.417582417582,2.62930402930403,36.0470689589856
1743442784002,13:39:44.002,114,-1,1213.18681318681,2.62637362637363,36.0470689589856
1743442784021,13:39:44.021,114,-1,1485.71428571429,2.62490842490842,36.0470689589856
1743442784041,13:39:44.041,114,-1,1734.79853479853,2.62490842490842,36.0470689589856
1743442784060,13:39:44.060,114,-1,1895.2380952381,2.62197802197802,36.0470689589856
1743442784080,13:39:44.080,114,-1,1944.32234432234,2.62490842490842,36.0470689589856
1743442784099,13:39:44.099,114,-1,1896.7032967033,2.62490842490842,36.0470689589856
1743442784119,13:39:44.119,114,-1,1779.48717948718,2.62197802197802,36.0470689589856
1743442784138,13:39:44.138,114,-1,1632.23443223443,2.61611721611722,36.0470689589856
1743442784158,13:39:44.158,114,-1,1473.26007326007,2.62051282051282,36.0470689589856
1743442784177,13:39:44.177,114,-1,1318.68131868132,2.62051282051282,36.0470689589856
1743442784197,13:39:44.197,114,-1,1189.74358974359,2.61904761904762,36.0470689589856
1743442784216,13:39:44.216,114,-1,1112.08791208791,2.61758241758242,36.0470689589856
1743442784236,13:39:44.236,114,-1,1059.34065934066,2.61611721611722,36.0470689589856
1743442784255,13:39:44.255,114,-1,1019.04761904762,2.61611721611722,36.0470689589856
1743442784275,13:39:44.275,114,-1,999.267399267399,2.61465201465201,36.0470689589856
1743442784294,13:39:44.294,114,-1,1002.1978021978,2.61318681318681,36.0470689589856
1743442784314,13:39:44.314,114,-1,995.604395604396,2.61172161172161,36.0470689589856
1743442784333,13:39:44.333,114,-1,964.835164835165,2.60879120879121,36.0470689589856
1743442784353,13:39:44.353,114,-1,943.589743589744,2.60732600732601,36.0470689589856
1743442784372,13:39:44.372,114,-1,933.333333333333,2.60732600732601,36.0470689589856
1743442784392,13:39:44.392,114,-1,921.611721611722,2.60586080586081,36.0470689589856
1743442784411,13:39:44.411,114,-1,906.959706959707,2.6043956043956,36.0470689589856
1743442784431,13:39:44.431,114,-1,939.92673992674,2.6029304029304,36.0470689589856
1743442784450,13:39:44.450,114,-1,1089.37728937729,2.6014652014652,36.0470689589856
1743442784470,13:39:44.470,114,-1,1338.46153846154,2.5970695970696,36.0470689589856
1743442784489,13:39:44.489,114,-1,1595.6043956044,2.59413919413919,36.0470689589856
1743442784509,13:39:44.509,114,-1,1813.91941391941,2.58974358974359,36.0470689589856
1743442784528,13:39:44.528,114,-1,1961.17216117216,2.58388278388278,36.0470689589856
1743442784548,13:39:44.548,114,-1,1991.94139194139,2.57509157509157,36.0470689589856
1743442784567,13:39:44.567,114,-1,1950.91575091575,2.56483516483516,36.0470689589856
1743442784587,13:39:44.587,114,-1,1852.74725274725,2.55311355311355,36.0470689589856
1743442784606,13:39:44.606,114,-1,1714.28571428571,2.53846153846154,36.0470689589856
1743442784626,13:39:44.626,114,-1,1556.04395604396,2.52380952380952,36.0470689589856
1743442784645,13:39:44.645,114,-1,1389.01098901099,2.51355311355311,36.0470689589856
1743442784665,13:39:44.665,114,-1,1249.81684981685,2.5047619047619,36.0470689589856
1743442784684,13:39:44.684,114,-1,1156.04395604396,2.5018315018315,36.0470689589856
1743442784704,13:39:44.704,114,-1,1095.9706959707,2.4989010989011,36.0470689589856
1743442784723,13:39:44.723,118,-1,1056.41025641026,2.4974358974359,36.0470689589856
1743442784743,13:39:44.743,118,-1,1027.10622710623,2.4989010989011,36.0470689589856
1743442784762,13:39:44.762,118,-1,1003.663003663,2.5003663003663,36.0470689589856
1743442784782,13:39:44.782,118,-1,983.150183150183,2.5003663003663,36.0470689589856
1743442784801,13:39:44.801,118,-1,961.172161172161,2.5018315018315,36.0470689589856
1743442784821,13:39:44.821,118,-1,937.728937728938,2.5032967032967,36.0470689589856
1743442784840,13:39:44.840,118,-1,919.413919413919,2.5032967032967,36.0470689589856
1743442784860,13:39:44.860,118,-1,917.216117216117,2.5032967032967,36.0470689589856
1743442784879,13:39:44.879,118,-1,926.007326007326,2.5047619047619,36.0570695250062
1743442784899,13:39:44.899,118,-1,991.208791208791,2.5047619047619,36.0570695250062
1743442784918,13:39:44.918,118,-1,1156.04395604396,2.50622710622711,36.0570695250062
1743442784938,13:39:44.938,118,-1,1408.05860805861,2.5047619047619,36.0570695250062
1743442784957,13:39:44.957,118,-1,1690.10989010989,2.50769230769231,36.0570695250062
1743442784977,13:39:44.977,118,-1,1917.94871794872,2.51062271062271,36.0570695250062
1743442784996,13:39:44.996,118,-1,2073.26007326007,2.51501831501831,36.0570695250062
1743442785016,13:39:45.016,118,-1,2153.84615384615,2.51794871794872,36.0570695250062
1743442785035,13:39:45.035,118,-1,2131.86813186813,2.51941391941392,36.0570695250062
1743442785055,13:39:45.055,118,-1,2037.36263736264,2.52087912087912,36.0570695250062
1743442785074,13:39:45.074,118,-1,1904.7619047619,2.52087912087912,36.0570695250062
1743442785094,13:39:45.094,118,-1,1759.70695970696,2.51941391941392,36.0570695250062
1743442785113,13:39:45.113,118,-1,1613.91941391941,2.51794871794872,36.0570695250062
1743442785133,13:39:45.133,118,-1,1465.93406593407,2.51941391941392,36.0570695250062
1743442785152,13:39:45.152,118,-1,1350.18315018315,2.51794871794872,36.0570695250062
1743442785172,13:39:45.172,123,-1,1279.85347985348,2.51941391941392,36.0570695250062
1743442785191,13:39:45.191,123,-1,1230.03663003663,2.51794871794872,36.0570695250062
1743442785211,13:39:45.211,123,-1,1184.61538461538,2.51501831501831,36.0570695250062
1743442785230,13:39:45.230,123,-1,1158.97435897436,2.51062271062271,36.0570695250062
1743442785250,13:39:45.250,123,-1,1128.93772893773,2.51062271062271,36.0570695250062
1743442785269,13:39:45.269,123,-1,1081.31868131868,2.51062271062271,36.0570695250062
1743442785289,13:39:45.289,123,-1,1030.03663003663,2.51062271062271,36.0570695250062
1743442785308,13:39:45.308,123,-1,1007.32600732601,2.50769230769231,36.0570695250062
1743442785328,13:39:45.328,123,-1,999.267399267399,2.5003663003663,36.0570695250062
1743442785347,13:39:45.347,123,-1,1035.16483516484,2.49157509157509,36.0570695250062
1743442785367,13:39:45.367,123,-1,1179.48717948718,2.48717948717949,36.0570695250062
1743442785386,13:39:45.386,123,-1,1416.11721611722,2.48424908424908,36.0570695250062
1743442785406,13:39:45.406,123,-1,1674.72527472527,2.48278388278388,36.0570695250062
1743442785425,13:39:45.425,123,-1,1884.98168498168,2.48278388278388,36.0570695250062
1743442785445,13:39:45.445,123,-1,2014.65201465201,2.48424908424908,36.0570695250062
1743442785464,13:39:45.464,123,-1,2030.76923076923,2.48278388278388,36.0570695250062
1743442785484,13:39:45.484,123,-1,1951.64835164835,2.47985347985348,36.0570695250062
1743442785503,13:39:45.503,123,-1,1826.37362637363,2.47399267399267,36.0570695250062
1743442785523,13:39:45.523,123,-1,1700.3663003663,2.46373626373626,36.0570695250062
1743442785542,13:39:45.542,123,-1,1586.08058608059,2.45934065934066,36.0570695250062
1743442785562,13:39:45.562,123,-1,1498.9010989011,2.45934065934066,36.0570695250062
1743442785581,13:39:45.581,123,-1,1480.58608058608,2.46227106227106,36.0570695250062
1743442785601,13:39:45.601,123,-1,1523.07692307692,2.46227106227106,36.0570695250062
1743442785620,13:39:45.620,123,-1,1602.1978021978,2.46227106227106,36.0570695250062
1743442785640,13:39:45.640,123,-1,1690.10989010989,2.46080586080586,36.0570695250062
1743442785659,13:39:45.659,134,-1,1783.88278388278,2.46080586080586,36.0570695250062
1743442785679,13:39:45.679,134,-1,1852.01465201465,2.46666666666667,36.0570695250062
1743442785698,13:39:45.698,134,-1,1831.50183150183,2.46813186813187,36.0570695250062
1743442785718,13:39:45.718,134,-1,1736.99633699634,2.47106227106227,36.0570695250062
1743442785737,13:39:45.737,134,-1,1607.32600732601,2.47252747252747,36.0570695250062
1743442785757,13:39:45.757,134,-1,1460.07326007326,2.47399267399267,36.0570695250062
1743442785776,13:39:45.776,134,-1,1239.56043956044,2.47106227106227,36.0570695250062
1743442785796,13:39:45.796,134,-1,986.080586080586,2.47106227106227,36.0570695250062
1743442785815,13:39:45.815,134,-1,887.179487179487,2.47106227106227,36.0570695250062
1743442785835,13:39:45.835,134,-1,1038.82783882784,2.46666666666667,36.0570695250062
1743442785854,13:39:45.854,134,-1,1360.43956043956,2.46373626373626,36.0570695250062
1743442785874,13:39:45.874,134,-1,1747.98534798535,2.46666666666667,36.0720703303814
1743442785893,13:39:45.893,134,-1,2104.7619047619,2.47692307692308,36.0720703303814
1743442785913,13:39:45.913,134,-1,2358.97435897436,2.47545787545788,36.0720703303814
1743442785932,13:39:45.932,134,-1,2515.75091575092,2.46813186813187,36.0720703303814
1743442785952,13:39:45.952,134,-1,2564.83516483516,2.46227106227106,36.0720703303814
1743442785971,13:39:45.971,134,-1,2463.73626373626,2.45641025641026,36.0720703303814
1743442785991,13:39:45.991,134,-1,2186.81318681319,2.45201465201465,36.0720703303814
1743442786010,13:39:46.010,134,-1,1838.82783882784,2.45054945054945,36.0720703303814
1743442786030,13:39:46.030,134,-1,1520.14652014652,2.44761904761905,36.0720703303814
1743442786049,13:39:46.049,134,-1,1256.41025641026,2.44468864468864,36.0720703303814
1743442786069,13:39:46.069,134,-1,1063.73626373626,2.44175824175824,36.0720703303814
1743442786088,13:39:46.088,134,-1,934.798534798535,2.43736263736264,36.0720703303814
1743442786108,13:39:46.108,134,-1,914.285714285714,2.43003663003663,36.0720703303814
1743442786127,13:39:46.127,123,-1,967.765567765568,2.42564102564103,36.0720703303814
1743442786147,13:39:46.147,123,-1,1026.37362637363,2.42124542124542,36.0720703303814
1743442786166,13:39:46.166,123,-1,1043.22344322344,2.41245421245421,36.0720703303814
1743442786186,13:39:46.186,123,-1,1052.74725274725,2.3992673992674,36.0720703303814
1743442786205,13:39:46.205,123,-1,1044.68864468864,2.403663003663,36.0720703303814
1743442786225,13:39:46.225,123,-1,970.695970695971,2.41831501831502,36.0720703303814
1743442786244,13:39:46.244,123,-1,775.091575091575,2.42417582417582,36.0720703303814
1743442786264,13:39:46.264,123,-1,504.029304029304,2.42564102564103,36.0720703303814
1743442786283,13:39:46.283,123,-1,371.428571428571,2.42564102564103,36.0720703303814
1743442786303,13:39:46.303,123,-1,471.062271062271,2.43589743589744,36.0720703303814
1743442786322,13:39:46.322,123,-1,539.92673992674,2.43443223443223,36.0720703303814
1743442786342,13:39:46.342,123,-1,524.542124542124,2.42857142857143,36.0720703303814
1743442786361,13:39:46.361,123,-1,530.40293040293,2.43150183150183,36.0720703303814
1743442786381,13:39:46.381,123,-1,569.96336996337,2.43150183150183,36.0720703303814
1743442786400,13:39:46.400,123,-1,639.560439560439,2.43882783882784,36.0720703303814
1743442786420,13:39:46.420,123,-1,803.663003663004,2.43589743589744,36.0720703303814
1743442786439,13:39:46.439,123,-1,1130.40293040293,2.44175824175824,36.0720703303814
1743442786459,13:39:46.459,123,-1,1499.6336996337,2.44029304029304,36.0720703303814
1743442786478,13:39:46.478,123,-1,1703.2967032967,2.44029304029304,36.0720703303814
1743442786498,13:39:46.498,123,-1,1728.20512820513,2.43882783882784,36.0720703303814
1743442786517,13:39:46.517,123,-1,1657.14285714286,2.43736263736264,36.0720703303814
1743442786537,13:39:46.537,123,-1,1578.75457875458,2.44175824175824,36.0720703303814
1743442786556,13:39:46.556,123,-1,1498.9010989011,2.44322344322344,36.0720703303814
1743442786576,13:39:46.576,123,-1,1380.21978021978,2.43736263736264,36.0720703303814
1743442786595,13:39:46.595,128,-1,1230.03663003663,2.42124542124542,36.0720703303814
1743442786615,13:39:46.615,128,-1,1055.67765567766,2.43003663003663,36.0720703303814
1743442786634,13:39:46.634,128,-1,856.410256410256,2.43443223443223,36.0720703303814
1743442786654,13:39:46.654,128,-1,709.157509157509,2.44029304029304,36.0720703303814
1743442786673,13:39:46.673,128,-1,635.164835164835,2.44468864468864,36.0720703303814
1743442786693,13:39:46.693,128,-1,630.769230769231,2.44615384615385,36.0720703303814
1743442786712,13:39:46.712,128,-1,677.655677655678,2.44615384615385,36.0720703303814
1743442786732,13:39:46.732,128,-1,772.893772893773,2.44468864468864,36.0720703303814
1743442786751,13:39:46.751,128,-1,952.380952380952,2.45641025641026,36.0720703303814
1743442786771,13:39:46.771,128,-1,1205.86080586081,2.46666666666667,36.0720703303814
1743442786790,13:39:46.790,128,-1,1449.08424908425,2.47545787545788,36.0720703303814
1743442786810,13:39:46.810,128,-1,1616.11721611722,2.48424908424908,36.0720703303814
1743442786829,13:39:46.829,128,-1,1715.01831501831,2.49010989010989,36.0720703303814
1743442786849,13:39:46.849,128,-1,1718.68131868132,2.4959706959707,36.0720703303814
1743442786868,13:39:46.868,128,-1,1611.72161172161,2.5003663003663,36.0920713227242
1743442786888,13:39:46.888,128,-1,1452.01465201465,2.5032967032967,36.0920713227242
1743442786907,13:39:46.907,128,-1,1297.4358974359,2.52087912087912,36.0920713227242
1743442786927,13:39:46.927,128,-1,1145.78754578755,2.53846153846154,36.0920713227242
1743442786946,13:39:46.946,128,-1,982.417582417582,2.54578754578755,36.0920713227242
1743442786966,13:39:46.966,128,-1,830.769230769231,2.55311355311355,36.0920713227242
1743442786985,13:39:46.985,128,-1,753.113553113553,2.56630036630037,36.0920713227242
1743442787005,13:39:47.005,128,-1,722.344322344322,2.58388278388278,36.0920713227242
1743442787024,13:39:47.024,128,-1,706.227106227106,2.5970695970696,36.0920713227242
1743442787044,13:39:47.044,128,-1,700.3663003663,2.60879120879121,36.0920713227242
1743442787063,13:39:47.063,128,-1,726.739926739927,2.62197802197802,36.0920713227242
1743442787083,13:39:47.083,128,-1,750.915750915751,2.64102564102564,36.0920713227242
1743442787102,13:39:47.102,128,-1,745.054945054945,2.66153846153846,36.0920713227242
1743442787122,13:39:47.122,128,-1,760.43956043956,2.67619047619048,36.0920713227242
1743442787141,13:39:47.141,128,-1,811.721611721612,2.68351648351648,36.0920713227242
1743442787161,13:39:47.161,128,-1,860.07326007326,2.69377289377289,36.0920713227242
1743442787180,13:39:47.180,128,-1,909.89010989011,2.7025641025641,36.0920713227242
1743442787200,13:39:47.200,128,-1,1027.10622710623,2.71282051282051,36.0920713227242
1743442787219,13:39:47.219,128,-1,1205.86080586081,2.72161172161172,36.0920713227242
1743442787239,13:39:47.239,128,-1,1427.10622710623,2.73333333333333,36.0920713227242
1743442787258,13:39:47.258,128,-1,1651.28205128205,2.74505494505494,36.0920713227242
1743442787278,13:39:47.278,128,-1,1808.05860805861,2.75677655677656,36.0920713227242
1743442787297,13:39:47.297,128,-1,1879.85347985348,2.76703296703297,36.0920713227242
1743442787317,13:39:47.317,128,-1,1879.12087912088,2.77582417582418,36.0920713227242
1743442787336,13:39:47.336,128,-1,1817.58241758242,2.78608058608059,36.0920713227242
1743442787356,13:39:47.356,128,-1,1700.3663003663,2.79194139194139,36.0920713227242
1743442787375,13:39:47.375,128,-1,1567.03296703297,2.796336996337,36.0920713227242
1743442787395,13:39:47.395,128,-1,1436.63003663004,2.7992673992674,36.0920713227242
1743442787414,13:39:47.414,128,-1,1283.51648351648,2.8021978021978,36.0920713227242
1743442787434,13:39:47.434,128,-1,1170.69597069597,2.80805860805861,36.0920713227242
1743442787453,13:39:47.453,128,-1,1123.07692307692,2.81538461538462,36.0920713227242
1743442787473,13:39:47.473,128,-1,1109.89010989011,2.82271062271062,36.0920713227242
1743442787492,13:39:47.492,128,-1,1107.69230769231,2.82857142857143,36.0920713227242
1743442787512,13:39:47.512,128,-1,1109.89010989011,2.83443223443223,36.0920713227242
1743442787531,13:39:47.531,128,-1,1112.82051282051,2.83882783882784,36.0920713227242
1743442787551,13:39:47.551,123,-1,1128.20512820513,2.84322344322344,36.0920713227242
1743442787570,13:39:47.570,123,-1,1149.45054945055,2.84908424908425,36.0920713227242
1743442787590,13:39:47.590,123,-1,1162.63736263736,2.85347985347985,36.0920713227242
1743442787609,13:39:47.609,123,-1,1168.49816849817,2.85787545787546,36.0920713227242
1743442787629,13:39:47.629,123,-1,1170.69597069597,2.86227106227106,36.0920713227242
1743442787648,13:39:47.648,123,-1,1245.42124542125,2.86813186813187,36.0920713227242
1743442787668,13:39:47.668,123,-1,1390.47619047619,2.87252747252747,36.0920713227242
1743442787687,13:39:47.687,123,-1,1557.50915750916,2.87692307692308,36.0920713227242
1743442787707,13:39:47.707,123,-1,1732.60073260073,2.87985347985348,36.0920713227242
1743442787726,13:39:47.726,123,-1,1876.92307692308,2.87985347985348,36.0920713227242
1743442787746,13:39:47.746,123,-1,1961.90476190476,2.87985347985348,36.0920713227242
1743442787765,13:39:47.765,123,-1,1967.76556776557,2.88278388278388,36.0920713227242
1743442787785,13:39:47.785,123,-1,1917.94871794872,2.88571428571429,36.0920713227242
1743442787804,13:39:47.804,123,-1,1810.25641025641,2.88131868131868,36.0920713227242
1743442787824,13:39:47.824,123,-1,1698.9010989011,2.87106227106227,36.0920713227242
1743442787843,13:39:47.843,123,-1,1592.67399267399,2.86520146520146,36.0920713227242
1743442787863,13:39:47.863,123,-1,1466.66666666667,2.86227106227106,36.102071783971
1743442787882,13:39:47.882,123,-1,1329.67032967033,2.85787545787546,36.102071783971
1743442787902,13:39:47.902,123,-1,1208.79120879121,2.85201465201465,36.102071783971
1743442787921,13:39:47.921,123,-1,1122.34432234432,2.85054945054945,36.102071783971
1743442787941,13:39:47.941,123,-1,1082.78388278388,2.84908424908425,36.102071783971
1743442787960,13:39:47.960,123,-1,1093.77289377289,2.84468864468864,36.102071783971
1743442787980,13:39:47.980,123,-1,1134.79853479853,2.84761904761905,36.102071783971
1743442787999,13:39:47.999,128,-1,1211.72161172161,2.84908424908425,36.102071783971
1743442788019,13:39:48.019,128,-1,1254.21245421245,2.85934065934066,36.102071783971
1743442788038,13:39:48.038,128,-1,1273.26007326007,2.86080586080586,36.102071783971
1743442788058,13:39:48.058,128,-1,1314.28571428571,2.85787545787546,36.102071783971
1743442788077,13:39:48.077,128,-1,1347.98534798535,2.86520146520146,36.102071783971
1743442788097,13:39:48.097,128,-1,1374.35897435897,2.87106227106227,36.102071783971
1743442788116,13:39:48.116,128,-1,1452.01465201465,2.87252747252747,36.102071783971
1743442788136,13:39:48.136,128,-1,1601.4652014652,2.87545787545788,36.102071783971
1743442788155,13:39:48.155,128,-1,1789.74358974359,2.87692307692308,36.102071783971
1743442788175,13:39:48.175,128,-1,1958.97435897436,2.87692307692308,36.102071783971
1743442788194,13:39:48.194,128,-1,2076.92307692308,2.87545787545788,36.102071783971
1743442788214,13:39:48.214,128,-1,2191.94139194139,2.87106227106227,36.102071783971
1743442788233,13:39:48.233,128,-1,2295.23809523809,2.87399267399267,36.102071783971
1743442788253,13:39:48.253,128,-1,2380.21978021978,2.87399267399267,36.102071783971
1743442788272,13:39:48.272,128,-1,2446.15384615385,2.86959706959707,36.102071783971
1743442788292,13:39:48.292,128,-1,2444.68864468864,2.86813186813187,36.102071783971
1743442788311,13:39:48.311,128,-1,2358.97435897436,2.86373626373626,36.102071783971
1743442788331,13:39:48.331,128,-1,2219.78021978022,2.85347985347985,36.102071783971
1743442788350,13:39:48.350,128,-1,2023.44322344322,2.84761904761905,36.102071783971
1743442788370,13:39:48.370,128,-1,1758.24175824176,2.84468864468864,36.102071783971
1743442788389,13:39:48.389,128,-1,1486.44688644689,2.83736263736264,36.102071783971
1743442788409,13:39:48.409,128,-1,1271.79487179487,2.83150183150183,36.102071783971
1743442788428,13:39:48.428,128,-1,1139.19413919414,2.83003663003663,36.102071783971
1743442788448,13:39:48.448,128,-1,1071.79487179487,2.82857142857143,36.102071783971
1743442788467,13:39:48.467,134,-1,1035.89743589744,2.83150183150183,36.102071783971
1743442788487,13:39:48.487,134,-1,1030.76923076923,2.83150183150183,36.102071783971
1743442788506,13:39:48.506,134,-1,1095.9706959707,2.82417582417582,36.102071783971
1743442788526,13:39:48.526,134,-1,1219.78021978022,2.81684981684982,36.102071783971
1743442788545,13:39:48.545,134,-1,1386.81318681319,2.80952380952381,36.102071783971
1743442788565,13:39:48.565,134,-1,1654.21245421245,2.8007326007326,36.102071783971
1743442788584,13:39:48.584,134,-1,1975.82417582418,2.78315018315018,36.102071783971
1743442788604,13:39:48.604,134,-1,2265.93406593407,2.74798534798535,36.102071783971
1743442788623,13:39:48.623,134,-1,2445.42124542125,2.74945054945055,36.102071783971
1743442788643,13:39:48.643,134,-1,2416.84981684982,2.76849816849817,36.102071783971
1743442788662,13:39:48.662,134,-1,2228.57142857143,2.77289377289377,36.102071783971
1743442788682,13:39:48.682,134,-1,1940.65934065934,2.77435897435897,36.102071783971
1743442788701,13:39:48.701,134,-1,1599.2673992674,2.77728937728938,36.102071783971
1743442788721,13:39:48.721,134,-1,1260.07326007326,2.77142857142857,36.102071783971
1743442788740,13:39:48.740,134,-1,980.21978021978,2.77435897435897,36.102071783971
1743442788760,13:39:48.760,134,-1,743.589743589744,2.76556776556777,36.102071783971
1743442788779,13:39:48.779,134,-1,448.351648351648,2.75384615384615,36.102071783971
1743442788799,13:39:48.799,134,-1,142.124542124542,2.75531135531135,36.102071783971
1743442788818,13:39:48.818,134,-1,81.3186813186813,2.74798534798535,36.102071783971
1743442788838,13:39:48.838,134,-1,321.611721611722,2.74798534798535,36.102071783971
1743442788857,13:39:48.857,134,-1,526.739926739927,2.72600732600733,36.1170724321855
1743442788877,13:39:48.877,134,-1,682.051282051282,2.72600732600733,36.1170724321855
1743442788896,13:39:48.896,134,-1,887.912087912088,2.74065934065934,36.1170724321855
1743442788916,13:39:48.916,134,-1,1147.25274725275,2.73919413919414,36.1170724321855
1743442788935,13:39:48.935,128,-1,1368.49816849817,2.74652014652015,36.1170724321855
1743442788955,13:39:48.955,128,-1,1515.01831501831,2.74212454212454,36.1170724321855
1743442788974,13:39:48.974,128,-1,1590.47619047619,2.73772893772894,36.1170724321855
1743442788994,13:39:48.994,128,-1,1629.30402930403,2.73333333333333,36.1170724321855
1743442789013,13:39:49.013,128,-1,1716.48351648352,2.72747252747253,36.1170724321855
1743442789033,13:39:49.033,128,-1,1948.71794871795,2.72454212454212,36.1170724321855
1743442789052,13:39:49.052,128,-1,2259.34065934066,2.72161172161172,36.1170724321855
1743442789072,13:39:49.072,128,-1,2542.85714285714,2.72161172161172,36.1170724321855
1743442789091,13:39:49.091,128,-1,2772.89377289377,2.72014652014652,36.1170724321855
1743442789111,13:39:49.111,128,-1,2808.79120879121,2.72014652014652,36.1170724321855
1743442789130,13:39:49.130,128,-1,2808.79120879121,2.71721611721612,36.1170724321855
1743442789150,13:39:49.150,128,-1,2808.79120879121,2.71575091575092,36.1170724321855
1743442789169,13:39:49.169,128,-1,2809.52380952381,2.71428571428571,36.1170724321855
1743442789189,13:39:49.189,128,-1,2808.05860805861,2.71428571428571,36.1170724321855
1743442789208,13:39:49.208,128,-1,2658.60805860806,2.71135531135531,36.1170724321855
1743442789228,13:39:49.228,128,-1,2323.07692307692,2.70842490842491,36.1170724321855
1743442789247,13:39:49.247,128,-1,1901.8315018315,2.70695970695971,36.1170724321855
1743442789267,13:39:49.267,128,-1,1495.9706959707,2.70695970695971,36.1170724321855
1743442789286,13:39:49.286,128,-1,1182.41758241758,2.70549450549451,36.1170724321855
1743442789306,13:39:49.306,128,-1,978.021978021978,2.70842490842491,36.1170724321855
1743442789325,13:39:49.325,128,-1,893.772893772894,2.71282051282051,36.1170724321855
1743442789345,13:39:49.345,128,-1,898.168498168498,2.71428571428571,36.1170724321855
1743442789364,13:39:49.364,128,-1,941.391941391941,2.71135531135531,36.1170724321855
1743442789384,13:39:49.384,128,-1,978.021978021978,2.70549450549451,36.1170724321855
1743442789403,13:39:49.403,128,-1,1040.29304029304,2.70989010989011,36.1170724321855
1743442789423,13:39:49.423,128,-1,1095.9706959707,2.71282051282051,36.1170724321855
1743442789442,13:39:49.442,128,-1,1109.89010989011,2.72161172161172,36.1170724321855
1743442789462,13:39:49.462,128,-1,1214.65201465201,2.71428571428571,36.1170724321855
1743442789481,13:39:49.481,128,-1,1510.62271062271,2.72161172161172,36.1170724321855
1743442789501,13:39:49.501,128,-1,2010.98901098901,2.74065934065934,36.1170724321855
1743442789520,13:39:49.520,128,-1,2542.85714285714,2.74065934065934,36.1170724321855
1743442789540,13:39:49.540,128,-1,2808.79120879121,2.74945054945055,36.1170724321855
1743442789559,13:39:49.559,128,-1,2808.79120879121,2.75824175824176,36.1170724321855
1743442789579,13:39:49.579,128,-1,2808.79120879121,2.76849816849817,36.1170724321855
1743442789598,13:39:49.598,-1,-1,2808.79120879121,2.77435897435897,36.1170724321855
1743442789618,13:39:49.618,-1,-1,2809.52380952381,2.78315018315018,36.1170724321855
1743442789637,13:39:49.637,-1,-1,2761.90476190476,2.79047619047619,36.1170724321855
1743442789657,13:39:49.657,-1,-1,2545.05494505494,2.8007326007326,36.1170724321855
1743442789676,13:39:49.676,-1,-1,2264.46886446886,2.80659340659341,36.1170724321855
1743442789696,13:39:49.696,-1,-1,1961.17216117216,2.81098901098901,36.1170724321855
1743442789715,13:39:49.715,-1,-1,1677.65567765568,2.81245421245421,36.1170724321855
1743442789735,13:39:49.735,-1,-1,1460.80586080586,2.80952380952381,36.1170724321855
1743442789754,13:39:49.754,-1,-1,1345.05494505494,2.81098901098901,36.1170724321855
1743442789774,13:39:49.774,-1,-1,1336.99633699634,2.82124542124542,36.1170724321855
1743442789793,13:39:49.793,-1,-1,1427.83882783883,2.82857142857143,36.1170724321855
1743442789813,13:39:49.813,-1,-1,1551.64835164835,2.82417582417582,36.1170724321855
1743442789832,13:39:49.832,-1,-1,1628.57142857143,2.82417582417582,36.1170724321855
1743442789852,13:39:49.852,-1,-1,1672.52747252747,2.82417582417582,36.1320730280131
1743442789871,13:39:49.871,-1,-1,1636.63003663004,2.81684981684982,36.1320730280131
1743442789891,13:39:49.891,-1,-1,1483.51648351648,2.81098901098901,36.1320730280131
1743442789910,13:39:49.910,-1,-1,1328.20512820513,2.81098901098901,36.1320730280131
1743442789930,13:39:49.930,-1,-1,1358.24175824176,2.81245421245421,36.1320730280131
1743442789949,13:39:49.949,-1,-1,1583.88278388278,2.81391941391941,36.1320730280131
1743442789969,13:39:49.969,-1,-1,1873.99267399267,2.81684981684982,36.1320730280131
1743442789988,13:39:49.988,-1,-1,2124.54212454212,2.81684981684982,36.1320730280131
1743442790008,13:39:50.008,-1,-1,2281.31868131868,2.81684981684982,36.1320730280131
1743442790027,13:39:50.027,-1,-1,2336.26373626374,2.81684981684982,36.1320730280131
1743442790047,13:39:50.047,-1,-1,2303.2967032967,2.81684981684982,36.1320730280131
1743442790066,13:39:50.066,-1,-1,2212.45421245421,2.81978021978022,36.1320730280131
1743442790086,13:39:50.086,-1,-1,2082.05128205128,2.82124542124542,36.1320730280131
1743442790105,13:39:50.105,-1,-1,1910.62271062271,2.80659340659341,36.1320730280131
1743442790125,13:39:50.125,-1,-1,1703.2967032967,2.78754578754579,36.1320730280131
1743442790144,13:39:50.144,-1,-1,1462.27106227106,2.7978021978022,36.1320730280131
1743442790164,13:39:50.164,-1,-1,1223.44322344322,2.8021978021978,36.1320730280131
1743442790183,13:39:50.183,-1,-1,1010.98901098901,2.78608058608059,36.1320730280131
1743442790203,13:39:50.203,-1,-1,818.315018315018,2.76996336996337,36.1320730280131
1743442790222,13:39:50.222,-1,-1,582.417582417582,2.77142857142857,36.1320730280131
1743442790242,13:39:50.242,-1,-1,323.076923076923,2.77582417582418,36.1320730280131
1743442790261,13:39:50.261,-1,-1,135.531135531136,2.79194139194139,36.1320730280131
1743442790281,13:39:50.281,-1,-1,0,2.8021978021978,36.1320730280131
1743442790300,13:39:50.300,-1,-1,0,2.80659340659341,36.1320730280131
1743442790320,13:39:50.320,-1,-1,0,2.8007326007326,36.1320730280131
1743442790339,13:39:50.339,-1,-1,8.79120879120879,2.79194139194139,36.1320730280131
1743442790359,13:39:50.359,-1,-1,234.432234432234,2.78608058608059,36.1320730280131
1743442790378,13:39:50.378,-1,-1,712.820512820513,2.77728937728938,36.1320730280131
1743442790398,13:39:50.398,-1,-1,1383.15018315018,2.77582417582418,36.1320730280131
1743442790417,13:39:50.417,-1,-1,2077.65567765568,2.76703296703297,36.1320730280131
1743442790437,13:39:50.437,-1,-1,2612.45421245421,2.76556776556777,36.1320730280131
1743442790456,13:39:50.456,-1,-1,2808.79120879121,2.78315018315018,36.1320730280131
1743442790476,13:39:50.476,-1,-1,2809.52380952381,2.76263736263736,36.1320730280131
1743442790496,13:39:50.495,-1,-1,2808.79120879121,2.74212454212454,36.1320730280131
1743442790515,13:39:50.515,-1,-1,2809.52380952381,2.73479853479853,36.1320730280131
1743442790535,13:39:50.534,-1,-1,2808.79120879121,2.71428571428571,36.1320730280131
1743442790554,13:39:50.554,-1,-1,2808.79120879121,2.6981684981685,36.1320730280131
1743442790574,13:39:50.573,-1,-1,2809.52380952381,2.68058608058608,36.1320730280131
1743442790593,13:39:50.593,-1,-1,2809.52380952381,2.67472527472527,36.1320730280131
1743442790613,13:39:50.612,-1,-1,2764.83516483516,2.67619047619048,36.1320730280131
1743442790632,13:39:50.632,-1,-1,2463.73626373626,2.67179487179487,36.1320730280131
1743442790652,13:39:50.652,-1,-1,2144.32234432234,2.66007326007326,36.1320730280131
1743442790671,13:39:50.671,-1,-1,1901.0989010989,2.65421245421245,36.1320730280131
1743442790691,13:39:50.691,-1,-1,1743.58974358974,2.64981684981685,36.1320730280131
1743442790710,13:39:50.710,-1,-1,1632.96703296703,2.63809523809524,36.1320730280131
1743442790730,13:39:50.730,-1,-1,1520.14652014652,2.62051282051282,36.1320730280131
1743442790749,13:39:50.749,-1,-1,1373.62637362637,2.61318681318681,36.1320730280131
1743442790769,13:39:50.769,-1,-1,1199.2673992674,2.61611721611722,36.1320730280131
1743442790788,13:39:50.788,-1,-1,998.534798534798,2.62051282051282,36.1320730280131
1743442790808,13:39:50.808,-1,-1,823.443223443223,2.62051282051282,36.1320730280131
1743442790827,13:39:50.827,-1,-1,771.428571428571,2.61904761904762,36.1320730280131
1743442790847,13:39:50.847,-1,-1,920.879120879121,2.62930402930403,36.1470735714538
1743442790866,13:39:50.866,-1,-1,1197.8021978022,2.63809523809524,36.1470735714538
1743442790886,13:39:50.886,-1,-1,1489.37728937729,2.66007326007326,36.1470735714538
1743442790905,13:39:50.905,-1,-1,1715.75091575092,2.68058608058608,36.1470735714538
1743442790925,13:39:50.925,-1,-1,1836.63003663004,2.68937728937729,36.1470735714538
1743442790944,13:39:50.944,-1,-1,1865.20146520146,2.69523809523809,36.1470735714538
1743442790964,13:39:50.964,-1,-1,1749.45054945055,2.70695970695971,36.1470735714538
1743442790983,13:39:50.983,-1,-1,1542.12454212454,2.7025641025641,36.1470735714538
1743442791003,13:39:51.003,-1,-1,1318.68131868132,2.6981684981685,36.1470735714538
1743442791022,13:39:51.022,-1,-1,1096.7032967033,2.69523809523809,36.1470735714538
1743442791042,13:39:51.042,-1,-1,893.040293040293,2.68791208791209,36.1470735714538
1743442791061,13:39:51.061,-1,-1,682.783882783883,2.6981684981685,36.1470735714538
1743442791081,13:39:51.081,-1,-1,489.377289377289,2.70549450549451,36.1470735714538
1743442791100,13:39:51.100,-1,-1,400,2.70842490842491,36.1470735714538
1743442791120,13:39:51.120,-1,-1,460.07326007326,2.71575091575092,36.1470735714538
1743442791139,13:39:51.139,-1,-1,660.07326007326,2.72454212454212,36.1470735714538
1743442791159,13:39:51.159,-1,-1,956.776556776557,2.73040293040293,36.1470735714538
1743442791178,13:39:51.178,-1,-1,1268.86446886447,2.73479853479853,36.1470735714538
1743442791198,13:39:51.198,-1,-1,1482.05128205128,2.73333333333333,36.1470735714538
1743442791217,13:39:51.217,-1,-1,1520.14652014652,2.73333333333333,36.1470735714538
1743442791237,13:39:51.237,-1,-1,1429.30402930403,2.73919413919414,36.1470735714538
1743442791256,13:39:51.256,-1,-1,1264.46886446886,2.74358974358974,36.1470735714538
1743442791276,13:39:51.276,-1,-1,1104.0293040293,2.74798534798535,36.1470735714538
1743442791295,13:39:51.295,-1,-1,1115.75091575092,2.74945054945055,36.1470735714538
1743442791315,13:39:51.315,-1,-1,1336.99633699634,2.74945054945055,36.1470735714538
1743442791334,13:39:51.334,-1,-1,1673.26007326007,2.74798534798535,36.1470735714538
1743442791354,13:39:51.354,-1,-1,1979.48717948718,2.74798534798535,36.1470735714538
1743442791373,13:39:51.373,-1,-1,2191.20879120879,2.74652014652015,36.1470735714538
1743442791393,13:39:51.393,-1,-1,2279.12087912088,2.74505494505494,36.1470735714538
1743442791412,13:39:51.412,-1,-1,2254.94505494505,2.73919413919414,36.1470735714538
1743442791432,13:39:51.432,-1,-1,2138.46153846154,2.71868131868132,36.1470735714538
1743442791451,13:39:51.451,-1,-1,1980.21978021978,2.71135531135531,36.1470735714538
1743442791471,13:39:51.471,-1,-1,1777.28937728938,2.71868131868132,36.1470735714538
1743442791490,13:39:51.490,-1,-1,1493.04029304029,2.72893772893773,36.1470735714538
1743442791510,13:39:51.510,-1,-1,1108.42490842491,2.73040293040293,36.1470735714538
1743442791529,13:39:51.529,-1,-1,697.435897435897,2.73333333333333,36.1470735714538
1743442791549,13:39:51.549,-1,-1,229.304029304029,2.72747252747253,36.1470735714538
1743442791568,13:39:51.568,-1,-1,0,2.72454212454212,36.1470735714538
1743442791588,13:39:51.588,-1,-1,0,2.72600732600733,36.1470735714538
1743442791607,13:39:51.607,-1,-1,0,2.72454212454212,36.1470735714538
1743442791627,13:39:51.627,-1,-1,0,2.72307692307692,36.1470735714538
1743442791646,13:39:51.646,-1,-1,0,2.72454212454212,36.1470735714538
1743442791666,13:39:51.666,-1,-1,0,2.72454212454212,36.1470735714538
1743442791685,13:39:51.685,-1,-1,0,2.72454212454212,36.1470735714538
1743442791705,13:39:51.705,-1,-1,0,2.73186813186813,36.1470735714538
1743442791724,13:39:51.724,-1,-1,0,2.73186813186813,36.1470735714538
1743442791744,13:39:51.744,-1,-1,0,2.74212454212454,36.1470735714538
1743442791763,13:39:51.763,-1,-1,0,2.74798534798535,36.1470735714538
1743442791783,13:39:51.783,-1,-1,0,2.74798534798535,36.1470735714538
1743442791802,13:39:51.802,-1,-1,890.842490842491,2.74358974358974,36.1470735714538
1743442791822,13:39:51.822,-1,-1,2106.22710622711,2.73626373626374,36.1470735714538
1743442791841,13:39:51.841,-1,-1,2808.79120879121,2.73479853479853,36.1670742145507
1743442791861,13:39:51.861,-1,-1,2808.79120879121,2.73333333333333,36.1670742145507
1743442791880,13:39:51.880,-1,-1,2808.79120879121,2.73186813186813,36.1670742145507
1743442791900,13:39:51.900,-1,-1,2808.79120879121,2.73040293040293,36.1670742145507
1743442791919,13:39:51.919,-1,-1,2808.79120879121,2.72747252747253,36.1670742145507
1743442791939,13:39:51.939,-1,-1,2808.79120879121,2.72747252747253,36.1670742145507
1743442791958,13:39:51.958,-1,-1,2808.79120879121,2.72600732600733,36.1670742145507
1743442791978,13:39:51.978,-1,-1,2788.27838827839,2.72454212454212,36.1670742145507
1743442791997,13:39:51.997,-1,-1,2388.27838827839,2.71868131868132,36.1670742145507
1743442792017,13:39:52.017,-1,-1,1955.31135531136,2.70549450549451,36.1670742145507
1743442792036,13:39:52.036,-1,-1,1605.86080586081,2.7040293040293,36.1670742145507
1743442792056,13:39:52.056,-1,-1,1256.41025641026,2.71575091575092,36.1670742145507
1743442792075,13:39:52.075,-1,-1,901.098901098901,2.72161172161172,36.1670742145507
1743442792095,13:39:52.095,-1,-1,583.150183150183,2.72893772893773,36.1670742145507
1743442792114,13:39:52.114,-1,-1,250.549450549451,2.73040293040293,36.1670742145507
1743442792134,13:39:52.134,-1,-1,0,2.71428571428571,36.1670742145507
1743442792153,13:39:52.153,-1,-1,0,2.70695970695971,36.1670742145507
1743442792173,13:39:52.173,-1,-1,0,2.71428571428571,36.1670742145507
1743442792192,13:39:52.192,134,-1,0,2.72014652014652,36.1670742145507
1743442792212,13:39:52.212,134,-1,0,2.72161172161172,36.1670742145507
1743442792231,13:39:52.231,134,-1,0,2.72600732600733,36.1670742145507
1743442792251,13:39:52.251,134,-1,36.6300366300366,2.73333333333333,36.1670742145507
1743442792270,13:39:52.270,134,-1,607.326007326007,2.73333333333333,36.1670742145507
1743442792290,13:39:52.290,134,-1,1367.76556776557,2.71428571428571,36.1670742145507
1743442792309,13:39:52.309,134,-1,2038.82783882784,2.71135531135531,36.1670742145507
1743442792329,13:39:52.329,134,-1,2480.58608058608,2.70989010989011,36.1670742145507
1743442792348,13:39:52.348,134,-1,2663.73626373626,2.7025641025641,36.1670742145507
1743442792368,13:39:52.368,134,-1,2622.71062271062,2.70549450549451,36.1670742145507
1743442792387,13:39:52.387,134,-1,2393.40659340659,2.71282051282051,36.1670742145507
1743442792407,13:39:52.407,134,-1,2040.29304029304,2.71282051282051,36.1670742145507
1743442792426,13:39:52.426,134,-1,1664.46886446886,2.70989010989011,36.1670742145507
1743442792446,13:39:52.446,134,-1,1335.53113553114,2.70549450549451,36.1670742145507
1743442792465,13:39:52.465,134,-1,1095.2380952381,2.70549450549451,36.1670742145507
1743442792485,13:39:52.485,134,-1,947.252747252747,2.71135531135531,36.1670742145507
1743442792504,13:39:52.504,134,-1,868.864468864469,2.6967032967033,36.1670742145507
1743442792524,13:39:52.524,134,-1,835.897435897436,2.7025641025641,36.1670742145507
1743442792543,13:39:52.543,134,-1,818.315018315018,2.70695970695971,36.1670742145507
1743442792563,13:39:52.563,-1,-1,802.197802197802,2.70549450549451,36.1670742145507
1743442792582,13:39:52.582,-1,-1,783.150183150183,2.7025641025641,36.1670742145507
1743442792602,13:39:52.602,-1,-1,752.380952380952,2.6981684981685,36.1670742145507
1743442792621,13:39:52.621,-1,-1,706.959706959707,2.69523809523809,36.1670742145507
1743442792641,13:39:52.641,-1,-1,680.586080586081,2.69230769230769,36.1670742145507
1743442792660,13:39:52.660,-1,-1,764.835164835165,2.68937728937729,36.1670742145507
1743442792680,13:39:52.680,-1,-1,1058.60805860806,2.68791208791209,36.1670742145507
1743442792699,13:39:52.699,-1,-1,1493.04029304029,2.68644688644689,36.1670742145507
1743442792719,13:39:52.719,-1,-1,1932.60073260073,2.68937728937729,36.1670742145507
1743442792738,13:39:52.738,-1,-1,2258.60805860806,2.68644688644689,36.1670742145507
1743442792758,13:39:52.758,-1,-1,2413.18681318681,2.68351648351648,36.1670742145507
1743442792777,13:39:52.777,-1,-1,2398.5347985348,2.68351648351648,36.1670742145507
1743442792797,13:39:52.797,-1,-1,2260.07326007326,2.68498168498168,36.1670742145507
1743442792816,13:39:52.816,-1,-1,2024.17582417582,2.6996336996337,36.1670742145507
1743442792836,13:39:52.836,-1,-1,1723.07692307692,2.69377289377289,36.1670742145507
1743442792855,13:39:52.855,-1,-1,1372.89377289377,2.69230769230769,36.1670742145507
1743442792875,13:39:52.875,-1,-1,1044.68864468864,2.68644688644689,36.1670742145507
1743442792894,13:39:52.894,-1,-1,818.315018315018,2.68205128205128,36.1670742145507
1743442792914,13:39:52.914,-1,-1,698.168498168498,2.67912087912088,36.1670742145507
1743442792933,13:39:52.933,-1,-1,653.479853479853,2.67765567765568,36.1670742145507
1743442792953,13:39:52.953,-1,-1,650.549450549451,2.67472527472527,36.1670742145507
1743442792972,13:39:52.972,-1,-1,676.923076923077,2.66739926739927,36.1670742145507
1743442792992,13:39:52.992,-1,-1,688.644688644689,2.66300366300366,36.1670742145507
1743442793011,13:39:53.011,-1,-1,697.435897435897,2.66007326007326,36.1670742145507
1743442793031,13:39:53.031,-1,-1,696.703296703297,2.65714285714286,36.1670742145507
1743442793050,13:39:53.050,-1,-1,688.644688644689,2.65421245421245,36.1670742145507
1743442793070,13:39:53.070,-1,-1,655.677655677656,2.65128205128205,36.1670742145507
1743442793089,13:39:53.089,-1,-1,638.095238095238,2.64835164835165,36.1670742145507
1743442793109,13:39:53.109,-1,-1,715.018315018315,2.64542124542125,36.1670742145507
1743442793128,13:39:53.128,-1,-1,934.798534798535,2.64249084249084,36.1670742145507
1743442793148,13:39:53.148,-1,-1,1249.08424908425,2.63809523809524,36.1670742145507
1743442793167,13:39:53.167,-1,-1,1569.96336996337,2.63663003663004,36.1670742145507
1743442793187,13:39:53.187,-1,-1,1815.38461538462,2.63369963369963,36.1670742145507
1743442793206,13:39:53.206,-1,-1,1937.72893772894,2.63076923076923,36.1670742145507
1743442793226,13:39:53.226,-1,-1,1934.79853479853,2.62783882783883,36.1670742145507
1743442793245,13:39:53.245,-1,-1,1845.42124542125,2.62637362637363,36.1670742145507
1743442793265,13:39:53.265,-1,-1,1687.17948717949,2.62344322344322,36.1670742145507
