RawTimestamp,LocalTime,HR_Direct,HR_Buffered,PPG,GSR,Temperature
1743376427362,19:13:47.362,-1,-1,1504.7619047619,0.901831501831502,26.4608428180218
1743376427382,19:13:47.382,-1,-1,1493.77289377289,0.901831501831502,26.4608428180218
1743376427401,19:13:47.401,-1,-1,1482.05128205128,1.5854791974195,26.4608428180218
1743376427421,19:13:47.421,-1,-1,1473.26007326007,1.5854791974195,26.4608428180218
1743376427440,19:13:47.440,-1,-1,1459.34065934066,1.5854791974195,26.4608428180218
1743376427460,19:13:47.460,-1,-1,1438.82783882784,1.5854791974195,26.4608428180218
1743376427479,19:13:47.479,-1,-1,1428.57142857143,1.5854791974195,26.4608428180218
1743376427499,19:13:47.499,-1,-1,1426.37362637363,1.54943778637158,26.4608428180218
1743376427518,19:13:47.518,-1,-1,1436.63003663004,1.54943778637158,26.4608428180218
1743376427538,19:13:47.538,-1,-1,1438.09523809524,1.54943778637158,26.4608428180218
1743376427557,19:13:47.557,-1,-1,1442.49084249084,1.54943778637158,26.4608428180218
1743376427577,19:13:47.577,-1,-1,1446.15384615385,1.54943778637158,26.4608428180218
1743376427596,19:13:47.596,-1,-1,1441.02564102564,1.53186813186813,26.4608428180218
1743376427616,19:13:47.616,-1,-1,1427.83882783883,1.54212454212454,26.4608428180218
1743376427635,19:13:47.635,-1,-1,1408.79120879121,1.54505494505494,26.4608428180218
1743376427655,19:13:47.655,-1,-1,1394.13919413919,1.53919413919414,26.4608428180218
1743376427674,19:13:47.674,-1,-1,1380.95238095238,1.52307692307692,26.4608428180218
1743376427694,19:13:47.694,-1,-1,1372.89377289377,1.51868131868132,26.4608428180218
1743376427713,19:13:47.713,-1,-1,1368.49816849817,1.52307692307692,26.4608428180218
1743376427733,19:13:47.733,-1,-1,1379.48717948718,1.53333333333333,26.4608428180218
1743376427752,19:13:47.752,-1,-1,1387.54578754579,1.53186813186813,26.4608428180218
1743376427772,19:13:47.772,-1,-1,1378.75457875458,1.52600732600733,26.4608428180218
1743376427791,19:13:47.791,-1,-1,1350.91575091575,1.50842490842491,26.4608428180218
1743376427811,19:13:47.811,-1,-1,1347.25274725275,1.50695970695971,26.4608428180218
1743376427830,19:13:47.830,-1,-1,1353.84615384615,1.51282051282051,26.4608428180218
1743376427850,19:13:47.850,-1,-1,1367.03296703297,1.52600732600733,26.4608428180218
1743376427869,19:13:47.869,-1,-1,1368.49816849817,1.52161172161172,26.4608428180218
1743376427889,19:13:47.889,-1,-1,1361.17216117216,1.51575091575092,26.4608428180218
1743376427908,19:13:47.908,-1,-1,1347.25274725275,1.4996336996337,26.4608428180218
1743376427928,19:13:47.928,-1,-1,1338.46153846154,1.4996336996337,26.4608428180218
1743376427947,19:13:47.947,-1,-1,1333.33333333333,1.50695970695971,26.4608428180218
1743376427967,19:13:47.967,-1,-1,1334.06593406593,1.51868131868132,26.4608428180218
1743376427986,19:13:47.986,-1,-1,1336.26373626374,1.51428571428571,26.4608428180218
1743376428006,19:13:48.006,-1,-1,1332.60073260073,1.50842490842491,26.4608428180218
1743376428025,19:13:48.025,-1,-1,1347.98534798535,1.49084249084249,26.4608428180218
1743376428045,19:13:48.045,-1,-1,1378.02197802198,1.49230769230769,26.4608428180218
1743376428064,19:13:48.064,-1,-1,1426.37362637363,1.4996336996337,26.4608428180218
1743376428084,19:13:48.084,-1,-1,1473.99267399267,1.51282051282051,26.4608428180218
1743376428103,19:13:48.103,-1,-1,1498.9010989011,1.50842490842491,26.4608428180218
1743376428123,19:13:48.123,-1,-1,1513.55311355311,1.5010989010989,26.4608428180218
1743376428142,19:13:48.142,-1,-1,1536.26373626374,1.48351648351648,26.4608428180218
1743376428162,19:13:48.162,-1,-1,1558.24175824176,1.48791208791209,26.4608428180218
1743376428181,19:13:48.181,-1,-1,1566.30036630037,1.49523809523809,26.4608428180218
1743376428201,19:13:48.201,-1,-1,1563.36996336996,1.50695970695971,26.4608428180218
1743376428220,19:13:48.220,-1,-1,1553.84615384615,1.4996336996337,26.4608428180218
1743376428240,19:13:48.240,-1,-1,1539.92673992674,1.49084249084249,26.4608428180218
1743376428259,19:13:48.259,-1,-1,1520.87912087912,1.47472527472527,26.4608428180218
1743376428279,19:13:48.279,-1,-1,1497.4358974359,1.47765567765568,35.006882967311
1743376428298,19:13:48.298,-1,-1,1478.38827838828,1.48351648351648,35.006882967311
1743376428318,19:13:48.318,-1,-1,1467.39926739927,1.49230769230769,35.006882967311
1743376428337,19:13:48.337,-1,-1,1469.59706959707,1.48351648351648,35.006882967311
1743376428357,19:13:48.357,-1,-1,1469.59706959707,1.47326007326007,35.006882967311
1743376428376,19:13:48.376,-1,-1,1464.46886446886,1.45860805860806,35.006882967311
1743376428396,19:13:48.396,-1,-1,1467.39926739927,1.46446886446886,35.006882967311
1743376428415,19:13:48.415,-1,-1,1462.27106227106,1.47326007326007,35.006882967311
1743376428435,19:13:48.435,-1,-1,1459.34065934066,1.47912087912088,35.006882967311
1743376428454,19:13:48.454,-1,-1,1440.29304029304,1.47179487179487,35.006882967311
1743376428474,19:13:48.474,-1,-1,1423.44322344322,1.46007326007326,35.006882967311
1743376428493,19:13:48.493,-1,-1,1411.72161172161,1.44981684981685,35.006882967311
1743376428513,19:13:48.513,-1,-1,1410.98901098901,1.45567765567766,35.006882967311
1743376428532,19:13:48.532,-1,-1,1412.45421245421,1.46446886446886,35.006882967311
1743376428552,19:13:48.552,-1,-1,1405.86080586081,1.46886446886447,35.006882967311
1743376428571,19:13:48.571,-1,-1,1394.13919413919,1.46153846153846,35.006882967311
1743376428591,19:13:48.591,-1,-1,1391.20879120879,1.44835164835165,35.006882967311
1743376428610,19:13:48.610,-1,-1,1391.20879120879,1.44249084249084,35.006882967311
1743376428630,19:13:48.630,-1,-1,1389.01098901099,1.44835164835165,35.006882967311
1743376428649,19:13:48.649,-1,-1,1386.08058608059,1.46007326007326,35.006882967311
1743376428669,19:13:48.669,-1,-1,1383.88278388278,1.46153846153846,35.006882967311
1743376428688,19:13:48.688,-1,-1,1389.74358974359,1.45567765567766,35.006882967311
1743376428708,19:13:48.708,-1,-1,1392.67399267399,1.44102564102564,35.006882967311
1743376428727,19:13:48.727,-1,-1,1378.75457875458,1.43663003663004,35.006882967311
1743376428747,19:13:48.747,-1,-1,1363.36996336996,1.44395604395604,35.006882967311
1743376428766,19:13:48.766,-1,-1,1365.56776556777,1.45421245421245,35.006882967311
1743376428786,19:13:48.786,-1,-1,1372.16117216117,1.45421245421245,35.006882967311
1743376428805,19:13:48.805,-1,-1,1368.49816849817,1.44835164835165,35.006882967311
1743376428825,19:13:48.825,-1,-1,1378.02197802198,1.43223443223443,35.006882967311
1743376428844,19:13:48.844,-1,-1,1378.02197802198,1.43223443223443,35.006882967311
1743376428864,19:13:48.864,-1,-1,1378.02197802198,1.43663003663004,35.006882967311
1743376428883,19:13:48.883,-1,-1,1386.08058608059,1.44981684981685,35.006882967311
1743376428903,19:13:48.903,-1,-1,1426.37362637363,1.44542124542125,35.006882967311
1743376428922,19:13:48.922,-1,-1,1460.80586080586,1.44102564102564,35.006882967311
1743376428942,19:13:48.942,-1,-1,1489.37728937729,1.42344322344322,35.006882967311
1743376428961,19:13:48.961,-1,-1,1515.01831501831,1.42344322344322,35.006882967311
1743376428981,19:13:48.981,-1,-1,1547.98534798535,1.43076923076923,35.006882967311
1743376429000,19:13:49.000,-1,-1,1561.90476190476,1.44395604395604,35.006882967311
1743376429020,19:13:49.020,-1,-1,1560.43956043956,1.43956043956044,35.006882967311
1743376429039,19:13:49.039,-1,-1,1556.04395604396,1.43369963369963,35.006882967311
1743376429059,19:13:49.059,-1,-1,1553.84615384615,1.41758241758242,35.006882967311
1743376429078,19:13:49.078,-1,-1,1547.25274725275,1.42051282051282,35.006882967311
1743376429098,19:13:49.098,-1,-1,1537.72893772894,1.42783882783883,35.006882967311
1743376429117,19:13:49.117,-1,-1,1537.72893772894,1.44102564102564,35.006882967311
1743376429137,19:13:49.137,-1,-1,1526.73992673993,1.43663003663004,35.006882967311
1743376429156,19:13:49.156,-1,-1,1524.54212454212,1.43076923076923,35.006882967311
1743376429176,19:13:49.176,-1,-1,1518.68131868132,1.41611721611722,35.006882967311
1743376429195,19:13:49.195,-1,-1,1513.55311355311,1.41904761904762,35.006882967311
1743376429215,19:13:49.215,-1,-1,1506.95970695971,1.42783882783883,35.006882967311
1743376429234,19:13:49.234,-1,-1,1503.2967032967,1.44102564102564,35.006882967311
1743376429254,19:13:49.254,-1,-1,1501.0989010989,1.43516483516484,35.006882967311
1743376429273,19:13:49.273,-1,-1,1487.17948717949,1.42930402930403,35.0168859547703
1743376429293,19:13:49.293,-1,-1,1471.06227106227,1.41465201465201,35.0168859547703
1743376429312,19:13:49.312,-1,-1,1463.73626373626,1.42051282051282,35.0168859547703
1743376429332,19:13:49.332,-1,-1,1454.21245421245,1.43076923076923,35.0168859547703
1743376429351,19:13:49.351,-1,-1,1432.96703296703,1.44102564102564,35.0168859547703
1743376429371,19:13:49.371,-1,-1,1400,1.43663003663004,35.0168859547703
1743376429390,19:13:49.390,-1,-1,1376.55677655678,1.42930402930403,35.0168859547703
1743376429410,19:13:49.410,-1,-1,1380.21978021978,1.41758241758242,35.0168859547703
1743376429429,19:13:49.429,-1,-1,1395.6043956044,1.42344322344322,35.0168859547703
1743376429449,19:13:49.449,-1,-1,1392.67399267399,1.43369963369963,35.0168859547703
1743376429469,19:13:49.468,-1,-1,1386.81318681319,1.44249084249084,35.0168859547703
1743376429488,19:13:49.488,-1,-1,1387.54578754579,1.43663003663004,35.0168859547703
1743376429508,19:13:49.507,-1,-1,1373.62637362637,1.42637362637363,35.0168859547703
1743376429527,19:13:49.527,-1,-1,1368.49816849817,1.41758241758242,35.0168859547703
1743376429547,19:13:49.546,-1,-1,1368.49816849817,1.42344322344322,35.0168859547703
1743376429566,19:13:49.566,-1,-1,1361.17216117216,1.43516483516484,35.0168859547703
1743376429586,19:13:49.586,-1,-1,1352.38095238095,1.44102564102564,35.0168859547703
1743376429605,19:13:49.605,-1,-1,1356.77655677656,1.43516483516484,35.0168859547703
1743376429625,19:13:49.625,-1,-1,1346.52014652015,1.42344322344322,35.0168859547703
1743376429644,19:13:49.644,-1,-1,1347.98534798535,1.41758241758242,35.0168859547703
1743376429664,19:13:49.664,-1,-1,1354.57875457875,1.42344322344322,35.0168859547703
1743376429683,19:13:49.683,-1,-1,1351.64835164835,1.43663003663004,35.0168859547703
1743376429703,19:13:49.703,-1,-1,1347.98534798535,1.43956043956044,35.0168859547703
1743376429722,19:13:49.722,-1,-1,1337.72893772894,1.43369963369963,35.0168859547703
1743376429742,19:13:49.742,-1,-1,1320.87912087912,1.41904761904762,35.0168859547703
1743376429761,19:13:49.761,-1,-1,1317.21611721612,1.41611721611722,35.0168859547703
1743376429781,19:13:49.781,-1,-1,1336.26373626374,1.42344322344322,35.0168859547703
1743376429800,19:13:49.800,-1,-1,1376.55677655678,1.43516483516484,35.0168859547703
1743376429820,19:13:49.820,-1,-1,1420.51282051282,1.43516483516484,35.0168859547703
1743376429839,19:13:49.839,-1,-1,1454.21245421245,1.43076923076923,35.0168859547703
1743376429859,19:13:49.859,-1,-1,1485.71428571429,1.41465201465201,35.0168859547703
1743376429878,19:13:49.878,-1,-1,1511.35531135531,1.41465201465201,35.0168859547703
1743376429898,19:13:49.898,-1,-1,1509.15750915751,1.42051282051282,35.0168859547703
1743376429917,19:13:49.917,-1,-1,1515.01831501831,1.43516483516484,35.0168859547703
1743376429937,19:13:49.937,-1,-1,1517.21611721612,1.43223443223443,35.0168859547703
1743376429956,19:13:49.956,-1,-1,1521.61172161172,1.42930402930403,35.0168859547703
1743376429976,19:13:49.976,-1,-1,1530.40293040293,1.41172161172161,35.0168859547703
1743376429995,19:13:49.995,-1,-1,1528.20512820513,1.41318681318681,35.0168859547703
1743376430015,19:13:50.015,-1,-1,1522.34432234432,1.42051282051282,35.0168859547703
1743376430034,19:13:50.034,-1,-1,1506.22710622711,1.43369963369963,35.0168859547703
1743376430054,19:13:50.054,-1,-1,1488.64468864469,1.43076923076923,35.0168859547703
1743376430073,19:13:50.073,-1,-1,1471.06227106227,1.42637362637363,35.0168859547703
1743376430093,19:13:50.093,-1,-1,1447.61904761905,1.40879120879121,35.0168859547703
1743376430112,19:13:50.112,-1,-1,1446.88644688645,1.41172161172161,35.0168859547703
1743376430132,19:13:50.132,-1,-1,1444.68864468864,1.42051282051282,35.0168859547703
1743376430151,19:13:50.151,-1,-1,1445.42124542125,1.43369963369963,35.0168859547703
1743376430171,19:13:50.171,-1,-1,1446.88644688645,1.42930402930403,35.0168859547703
1743376430190,19:13:50.190,-1,-1,1435.89743589744,1.42344322344322,35.0168859547703
1743376430210,19:13:50.210,-1,-1,1427.10622710623,1.40732600732601,35.0168859547703
1743376430229,19:13:50.229,-1,-1,1409.52380952381,1.41172161172161,35.0168859547703
1743376430249,19:13:50.249,-1,-1,1402.9304029304,1.41904761904762,35.0168859547703
1743376430268,19:13:50.268,-1,-1,1397.0695970696,1.43223443223443,35.0218874397688
1743376430288,19:13:50.288,-1,-1,1386.81318681319,1.42637362637363,35.0218874397688
1743376430307,19:13:50.307,-1,-1,1375.82417582418,1.41904761904762,35.0218874397688
1743376430327,19:13:50.327,-1,-1,1363.36996336996,1.40586080586081,35.0218874397688
1743376430346,19:13:50.346,-1,-1,1356.77655677656,1.41025641025641,35.0218874397688
1743376430366,19:13:50.366,-1,-1,1353.84615384615,1.41904761904762,35.0218874397688
1743376430385,19:13:50.385,-1,-1,1353.11355311355,1.42930402930403,35.0218874397688
1743376430405,19:13:50.405,-1,-1,1336.26373626374,1.42344322344322,35.0218874397688
1743376430424,19:13:50.424,-1,-1,1320.87912087912,1.41465201465201,35.0218874397688
1743376430444,19:13:50.444,-1,-1,1320.14652014652,1.4029304029304,35.0218874397688
1743376430463,19:13:50.463,-1,-1,1315.01831501831,1.40879120879121,35.0218874397688
1743376430483,19:13:50.483,-1,-1,1326.00732600733,1.41758241758242,35.0218874397688
1743376430502,19:13:50.502,-1,-1,1326.73992673993,1.42637362637363,35.0218874397688
1743376430522,19:13:50.522,-1,-1,1322.34432234432,1.41904761904762,35.0218874397688
1743376430541,19:13:50.541,-1,-1,1317.21611721612,1.41025641025641,35.0218874397688
1743376430561,19:13:50.561,-1,-1,1316.48351648352,1.3985347985348,35.0218874397688
1743376430580,19:13:50.580,-1,-1,1326.73992673993,1.40586080586081,35.0218874397688
1743376430600,19:13:50.600,-1,-1,1320.87912087912,1.41611721611722,35.0218874397688
1743376430619,19:13:50.619,-1,-1,1309.15750915751,1.42197802197802,35.0218874397688
1743376430639,19:13:50.639,-1,-1,1298.1684981685,1.41758241758242,35.0218874397688
1743376430658,19:13:50.658,-1,-1,1294.50549450549,1.4043956043956,35.0218874397688
1743376430678,19:13:50.678,-1,-1,1301.8315018315,1.3970695970696,35.0218874397688
1743376430697,19:13:50.697,-1,-1,1330.40293040293,1.4043956043956,35.0218874397688
1743376430717,19:13:50.717,-1,-1,1369.23076923077,1.41611721611722,35.0218874397688
1743376430736,19:13:50.736,-1,-1,1408.79120879121,1.41904761904762,35.0218874397688
1743376430756,19:13:50.756,-1,-1,1430.76923076923,1.41318681318681,35.0218874397688
1743376430775,19:13:50.775,-1,-1,1451.28205128205,1.4,35.0218874397688
1743376430795,19:13:50.795,-1,-1,1453.47985347985,1.3956043956044,35.0218874397688
1743376430814,19:13:50.814,-1,-1,1445.42124542125,1.4029304029304,35.0218874397688
1743376430834,19:13:50.834,-1,-1,1445.42124542125,1.4029304029304,35.0218874397688
1743376430853,19:13:50.853,-1,-1,1447.61904761905,1.41611721611722,35.0218874397688
1743376430873,19:13:50.873,-1,-1,1443.22344322344,1.41025641025641,35.0218874397688
1743376430892,19:13:50.892,-1,-1,1457.14285714286,1.3956043956044,35.0218874397688
1743376430912,19:13:50.912,-1,-1,1473.99267399267,1.39267399267399,35.0218874397688
1743376430931,19:13:50.931,-1,-1,1476.19047619048,1.4014652014652,35.0218874397688
1743376430951,19:13:50.951,-1,-1,1473.99267399267,1.41465201465201,35.0218874397688
1743376430970,19:13:50.970,-1,-1,1457.14285714286,1.41172161172161,35.0218874397688
1743376430990,19:13:50.990,-1,-1,1440.29304029304,1.40732600732601,35.0218874397688
1743376431009,19:13:51.009,-1,-1,1425.64102564103,1.39120879120879,35.0218874397688
1743376431029,19:13:51.029,-1,-1,1406.59340659341,1.39120879120879,35.0218874397688
1743376431048,19:13:51.048,-1,-1,1385.34798534799,1.3985347985348,35.0218874397688
1743376431068,19:13:51.068,-1,-1,1383.88278388278,1.41172161172161,35.0218874397688
1743376431087,19:13:51.087,-1,-1,1375.82417582418,1.40879120879121,35.0218874397688
1743376431107,19:13:51.107,-1,-1,1373.62637362637,1.4029304029304,35.0218874397688
1743376431126,19:13:51.126,-1,-1,1377.28937728938,1.38681318681319,35.0218874397688
1743376431146,19:13:51.146,-1,-1,1383.15018315018,1.38681318681319,35.0218874397688
1743376431165,19:13:51.165,-1,-1,1376.55677655678,1.38681318681319,35.0218874397688
1743376431185,19:13:51.185,-1,-1,1367.03296703297,1.38681318681319,35.0218874397688
1743376431204,19:13:51.204,-1,-1,1359.70695970696,1.38681318681319,35.0218874397688
1743376431224,19:13:51.224,-1,-1,1355.31135531136,1.39482739482739,35.0218874397688
1743376431243,19:13:51.243,-1,-1,1346.52014652015,1.38417138417138,35.0218874397688
1743376431263,19:13:51.263,-1,-1,1331.13553113553,1.38106338106338,35.0268889189465
1743376431282,19:13:51.282,-1,-1,1324.54212454212,1.38505938505939,35.0268889189465
1743376431302,19:13:51.302,-1,-1,1325.27472527473,1.39438339438339,35.0268889189465
1743376431321,19:13:51.321,-1,-1,1320.87912087912,1.3957153957154,35.0268889189465
1743376431341,19:13:51.341,-1,-1,1309.89010989011,1.39216339216339,35.0268889189465
1743376431360,19:13:51.360,-1,-1,1317.21611721612,1.38106338106338,35.0268889189465
1743376431380,19:13:51.380,-1,-1,1323.80952380952,1.37928737928738,35.0268889189465
1743376431399,19:13:51.399,-1,-1,1323.07692307692,1.38372738372738,35.0268889189465
1743376431419,19:13:51.419,-1,-1,1318.68131868132,1.39305139305139,35.0268889189465
1743376431438,19:13:51.438,-1,-1,1305.49450549451,1.39305139305139,35.0268889189465
1743376431458,19:13:51.458,-1,-1,1311.35531135531,1.38905538905539,35.0268889189465
1743376431477,19:13:51.477,-1,-1,1310.62271062271,1.37839937839938,35.0268889189465
1743376431497,19:13:51.497,-1,-1,1305.49450549451,1.37751137751138,35.0268889189465
1743376431516,19:13:51.516,-1,-1,1296.7032967033,1.38239538239538,35.0268889189465
1743376431536,19:13:51.536,-1,-1,1302.5641025641,1.39127539127539,35.0268889189465
1743376431555,19:13:51.555,-1,-1,1319.41391941392,1.39038739038739,35.0268889189465
1743376431575,19:13:51.575,-1,-1,1327.47252747253,1.38505938505939,35.0268889189465
1743376431594,19:13:51.594,-1,-1,1320.87912087912,1.37484737484737,35.0268889189465
1743376431614,19:13:51.614,-1,-1,1335.53113553114,1.37484737484737,35.0268889189465
1743376431633,19:13:51.633,-1,-1,1372.16117216117,1.38061938061938,35.0268889189465
1743376431653,19:13:51.653,-1,-1,1402.1978021978,1.38861138861139,35.0268889189465
1743376431672,19:13:51.672,-1,-1,1409.52380952381,1.38772338772339,35.0268889189465
1743376431692,19:13:51.692,-1,-1,1419.04761904762,1.38061938061938,35.0268889189465
1743376431711,19:13:51.711,-1,-1,1432.23443223443,1.37173937173937,35.0268889189465
1743376431731,19:13:51.731,-1,-1,1441.02564102564,1.37262737262737,35.0268889189465
1743376431750,19:13:51.750,-1,-1,1439.56043956044,1.37928737928738,35.0268889189465
1743376431770,19:13:51.770,-1,-1,1431.50183150183,1.38594738594739,35.0268889189465
1743376431789,19:13:51.789,-1,-1,1417.58241758242,1.38461538461538,35.0268889189465
1743376431809,19:13:51.809,-1,-1,1419.04761904762,1.37706737706738,35.0268889189465
1743376431828,19:13:51.828,-1,-1,1435.16483516484,1.36907536907537,35.0268889189465
1743376431848,19:13:51.848,-1,-1,1444.68864468864,1.37040737040737,35.0268889189465
1743376431867,19:13:51.867,-1,-1,1436.63003663004,1.37795537795538,35.0268889189465
1743376431887,19:13:51.887,-1,-1,1424.17582417582,1.38328338328338,35.0268889189465
1743376431906,19:13:51.906,-1,-1,1405.12820512821,1.38195138195138,35.0268889189465
1743376431926,19:13:51.926,-1,-1,1383.88278388278,1.37307137307137,35.0268889189465
1743376431945,19:13:51.945,-1,-1,1364.83516483516,1.36641136641137,35.0268889189465
1743376431965,19:13:51.965,-1,-1,1358.97435897436,1.36863136863137,35.0268889189465
1743376431984,19:13:51.984,-1,-1,1361.17216117216,1.37706737706738,35.0268889189465
1743376432004,19:13:52.004,-1,-1,1361.90476190476,1.38106338106338,35.0268889189465
1743376432023,19:13:52.023,-1,-1,1359.70695970696,1.37928737928738,35.0268889189465
1743376432043,19:13:52.043,-1,-1,1350.18315018315,1.36951936951937,35.0268889189465
1743376432062,19:13:52.062,-1,-1,1342.85714285714,1.36419136419136,35.0268889189465
1743376432082,19:13:52.082,-1,-1,1338.46153846154,1.36685536685537,35.0268889189465
1743376432101,19:13:52.101,-1,-1,1334.06593406593,1.37573537573538,35.0268889189465
1743376432121,19:13:52.121,-1,-1,1335.53113553114,1.37839937839938,35.0268889189465
1743376432140,19:13:52.140,-1,-1,1342.12454212454,1.37617937617938,35.0268889189465
1743376432160,19:13:52.160,-1,-1,1352.38095238095,1.36552336552337,35.0268889189465
1743376432179,19:13:52.179,-1,-1,1355.31135531136,1.36108336108336,35.0268889189465
1743376432199,19:13:52.199,-1,-1,1342.12454212454,1.36419136419136,35.0268889189465
1743376432218,19:13:52.218,-1,-1,1323.07692307692,1.37351537351537,35.0268889189465
1743376432238,19:13:52.238,-1,-1,1305.49450549451,1.37529137529138,35.0268889189465
1743376432257,19:13:52.257,-1,-1,1296.7032967033,1.37262737262737,35.0318903923035
1743376432277,19:13:52.277,-1,-1,1290.10989010989,1.36108336108336,35.0318903923035
1743376432296,19:13:52.296,-1,-1,1288.64468864469,1.35753135753136,35.0318903923035
1743376432316,19:13:52.316,-1,-1,1301.0989010989,1.36063936063936,35.0318903923035
1743376432335,19:13:52.335,-1,-1,1315.01831501831,1.36951936951937,35.0318903923035
1743376432355,19:13:52.355,-1,-1,1310.62271062271,1.37040737040737,35.0318903923035
1743376432374,19:13:52.374,-1,-1,1295.9706959707,1.36685536685537,35.0318903923035
1743376432394,19:13:52.394,-1,-1,1293.04029304029,1.35531135531136,35.0318903923035
1743376432413,19:13:52.413,-1,-1,1306.22710622711,1.35309135309135,35.0318903923035
1743376432433,19:13:52.433,-1,-1,1315.75091575092,1.35708735708736,35.0318903923035
1743376432452,19:13:52.452,-1,-1,1317.21611721612,1.36641136641137,35.0318903923035
1743376432472,19:13:52.472,-1,-1,1308.42490842491,1.36641136641137,35.0318903923035
1743376432491,19:13:52.491,-1,-1,1300.3663003663,1.36241536241536,35.0318903923035
1743376432511,19:13:52.511,-1,-1,1316.48351648352,1.35175935175935,35.0318903923035
1743376432530,19:13:52.530,-1,-1,1340.65934065934,1.35042735042735,35.0318903923035
1743376432550,19:13:52.550,-1,-1,1375.82417582418,1.35531135531136,35.0318903923035
1743376432569,19:13:52.569,-1,-1,1397.0695970696,1.36419136419136,35.0318903923035
1743376432589,19:13:52.589,-1,-1,1404.3956043956,1.36374736374736,35.0318903923035
1743376432608,19:13:52.608,-1,-1,1408.05860805861,1.35886335886336,35.0318903923035
1743376432628,19:13:52.628,-1,-1,1417.58241758242,1.34865134865135,35.0318903923035
1743376432647,19:13:52.647,-1,-1,1419.04761904762,1.34820734820735,35.0318903923035
1743376432667,19:13:52.667,-1,-1,1421.97802197802,1.35397935397935,35.0318903923035
1743376432686,19:13:52.686,-1,-1,1424.90842490842,1.36241536241536,35.0318903923035
1743376432706,19:13:52.706,-1,-1,1442.49084249084,1.36152736152736,35.0318903923035
1743376432725,19:13:52.725,-1,-1,1454.21245421245,1.35531135531136,35.0318903923035
1743376432745,19:13:52.745,-1,-1,1449.81684981685,1.34598734598735,35.0318903923035
1743376432764,19:13:52.764,-1,-1,1437.36263736264,1.34687534687535,35.0318903923035
1743376432784,19:13:52.784,-1,-1,1431.50183150183,1.35309135309135,35.0318903923035
1743376432803,19:13:52.803,-1,-1,1420.51282051282,1.36063936063936,35.0318903923035
1743376432823,19:13:52.823,-1,-1,1411.72161172161,1.35930735930736,35.0318903923035
1743376432842,19:13:52.842,-1,-1,1411.72161172161,1.35930735930736,35.0318903923035
1743376432862,19:13:52.862,-1,-1,1397.8021978022,1.34376734376734,35.0318903923035
1743376432881,19:13:52.881,-1,-1,1396.336996337,1.34509934509935,35.0318903923035
1743376432901,19:13:52.901,-1,-1,1395.6043956044,1.35264735264735,35.0318903923035
1743376432920,19:13:52.920,-1,-1,1387.54578754579,1.35841935841936,35.0318903923035
1743376432940,19:13:52.940,-1,-1,1386.08058608059,1.35708735708736,35.0318903923035
1743376432959,19:13:52.959,-1,-1,1379.48717948718,1.34820734820735,35.0318903923035
1743376432979,19:13:52.979,-1,-1,1385.34798534799,1.34154734154734,35.0318903923035
1743376432998,19:13:52.998,-1,-1,1383.88278388278,1.34376734376734,35.0318903923035
1743376433018,19:13:53.018,-1,-1,1360.43956043956,1.35175935175935,35.0318903923035
1743376433037,19:13:53.037,-1,-1,1329.67032967033,1.35619935619936,35.0318903923035
1743376433057,19:13:53.057,-1,-1,1323.80952380952,1.35442335442335,35.0318903923035
1743376433076,19:13:53.076,-1,-1,1326.00732600733,1.34509934509935,35.0318903923035
1743376433096,19:13:53.096,-1,-1,1327.47252747253,1.33932733932734,35.0318903923035
1743376433115,19:13:53.115,-1,-1,1338.46153846154,1.34199134199134,35.0318903923035
1743376433135,19:13:53.135,-1,-1,1337.72893772894,1.35087135087135,35.0318903923035
1743376433154,19:13:53.154,-1,-1,1327.47252747253,1.35397935397935,35.0318903923035
1743376433174,19:13:53.174,-1,-1,1328.93772893773,1.35175935175935,35.0318903923035
1743376433193,19:13:53.193,-1,-1,1340.65934065934,1.34154734154734,35.0318903923035
1743376433213,19:13:53.213,-1,-1,1351.64835164835,1.33710733710734,35.0318903923035
1743376433232,19:13:53.232,-1,-1,1351.64835164835,1.34021534021534,35.0318903923035
1743376433252,19:13:53.252,-1,-1,1348.71794871795,1.34953934953935,35.0418933215551
1743376433271,19:13:53.271,-1,-1,1346.52014652015,1.35131535131535,35.0418933215551
1743376433291,19:13:53.291,-1,-1,1338.46153846154,1.34909534909535,35.0418933215551
1743376433310,19:13:53.310,-1,-1,1329.67032967033,1.33799533799534,35.0418933215551
1743376433330,19:13:53.330,-1,-1,1326.00732600733,1.33444333444333,35.0418933215551
1743376433349,19:13:53.349,-1,-1,1325.27472527473,1.33799533799534,35.0418933215551
1743376433369,19:13:53.369,-1,-1,1323.07692307692,1.34776334776335,35.0418933215551
1743376433388,19:13:53.388,-1,-1,1338.46153846154,1.34909534909535,35.0418933215551
1743376433408,19:13:53.408,-1,-1,1363.36996336996,1.34598734598735,35.0418933215551
1743376433427,19:13:53.427,-1,-1,1403.663003663,1.33488733488733,35.0418933215551
1743376433447,19:13:53.447,-1,-1,1427.83882783883,1.33266733266733,35.0418933215551
1743376433466,19:13:53.466,-1,-1,1446.15384615385,1.33710733710734,35.0418933215551
1743376433486,19:13:53.486,-1,-1,1445.42124542125,1.34643134643135,35.0418933215551
1743376433505,19:13:53.505,-1,-1,1441.75824175824,1.34643134643135,35.0418933215551
1743376433525,19:13:53.525,-1,-1,1441.75824175824,1.34287934287934,35.0418933215551
1743376433544,19:13:53.544,-1,-1,1432.96703296703,1.33177933177933,35.0418933215551
1743376433564,19:13:53.564,-1,-1,1420.51282051282,1.33044733044733,35.0418933215551
1743376433583,19:13:53.583,-1,-1,1407.32600732601,1.33577533577534,35.0418933215551
1743376433603,19:13:53.603,-1,-1,1409.52380952381,1.34465534465534,35.0418933215551
1743376433622,19:13:53.622,-1,-1,1397.0695970696,1.34421134421134,35.0418933215551
1743376433642,19:13:53.642,-1,-1,1394.13919413919,1.33932733932734,35.0418933215551
1743376433661,19:13:53.661,-1,-1,1407.32600732601,1.32911532911533,35.0418933215551
1743376433681,19:13:53.681,-1,-1,1426.37362637363,1.32867132867133,35.0418933215551
1743376433700,19:13:53.700,-1,-1,1435.16483516484,1.33444333444333,35.0418933215551
1743376433720,19:13:53.720,-1,-1,1426.37362637363,1.34243534243534,35.0418933215551
1743376433739,19:13:53.739,-1,-1,1414.65201465201,1.34199134199134,35.0418933215551
1743376433759,19:13:53.759,-1,-1,1405.86080586081,1.33621933621934,35.0418933215551
1743376433778,19:13:53.778,-1,-1,1397.0695970696,1.32689532689533,35.0418933215551
1743376433798,19:13:53.798,-1,-1,1397.8021978022,1.32733932733933,35.0418933215551
1743376433817,19:13:53.817,-1,-1,1394.13919413919,1.33399933399933,35.0418933215551
1743376433837,19:13:53.837,-1,-1,1381.68498168498,1.34110334110334,35.0418933215551
1743376433856,19:13:53.856,70,-1,1378.02197802198,1.34021534021534,35.0418933215551
1743376433876,19:13:53.876,70,-1,1366.30036630037,1.33311133311133,35.0418933215551
1743376433895,19:13:53.895,70,-1,1343.58974358974,1.32511932511932,35.0418933215551
1743376433915,19:13:53.915,70,-1,1334.79853479853,1.32645132645133,35.0418933215551
1743376433934,19:13:53.934,70,-1,1346.52014652015,1.33399933399933,35.0418933215551
1743376433954,19:13:53.954,70,-1,1347.98534798535,1.33977133977134,35.0418933215551
1743376433973,19:13:53.973,70,-1,1351.64835164835,1.33843933843934,35.0418933215551
1743376433993,19:13:53.993,70,-1,1349.45054945055,1.33000333000333,35.0418933215551
1743376434012,19:13:54.012,70,-1,1339.92673992674,1.32289932289932,35.0418933215551
1743376434032,19:13:54.032,70,-1,1328.93772893773,1.32511932511932,35.0418933215551
1743376434051,19:13:54.051,70,-1,1325.27472527473,1.33311133311133,35.0418933215551
1743376434071,19:13:54.071,70,-1,1326.00732600733,1.33799533799534,35.0418933215551
1743376434090,19:13:54.090,70,-1,1324.54212454212,1.33621933621934,35.0418933215551
1743376434110,19:13:54.110,70,-1,1323.07692307692,1.32689532689533,35.0418933215551
1743376434129,19:13:54.129,70,-1,1321.61172161172,1.32112332112332,35.0418933215551
1743376434149,19:13:54.149,70,-1,1316.48351648352,1.32334332334332,35.0418933215551
1743376434168,19:13:54.168,70,-1,1312.82051282051,1.33222333222333,35.0418933215551
1743376434188,19:13:54.188,70,-1,1308.42490842491,1.33533133533134,35.0418933215551
1743376434207,19:13:54.207,70,-1,1314.28571428571,1.33355533355533,35.0418933215551
1743376434227,19:13:54.227,70,-1,1343.58974358974,1.32378732378732,35.0418933215551
1743376434246,19:13:54.246,70,-1,1382.41758241758,1.31890331890332,35.0468947774498
1743376434266,19:13:54.266,70,-1,1418.31501831502,1.32201132201132,35.0468947774498
1743376434285,19:13:54.285,70,-1,1459.34065934066,1.33133533133533,35.0468947774498
1743376434305,19:13:54.305,70,-1,1494.50549450549,1.33355533355533,35.0468947774498
1743376434324,19:13:54.324,70,-1,1498.9010989011,1.33177933177933,35.0468947774498
1743376434344,19:13:54.344,70,-1,1503.2967032967,1.32112332112332,35.0468947774498
1743376434363,19:13:54.363,70,-1,1506.95970695971,1.31801531801532,35.0468947774498
1743376434383,19:13:54.383,70,-1,1504.0293040293,1.32201132201132,35.0468947774498
1743376434402,19:13:54.402,70,-1,1512.08791208791,1.33177933177933,35.0468947774498
1743376434422,19:13:54.422,70,-1,1520.87912087912,1.33355533355533,35.0468947774498
1743376434441,19:13:54.441,70,-1,1516.48351648352,1.33089133089133,35.0468947774498
1743376434461,19:13:54.461,70,-1,1517.21611721612,1.32023532023532,35.0468947774498
1743376434480,19:13:54.480,70,-1,1506.95970695971,1.31801531801532,35.0468947774498
1743376434500,19:13:54.500,70,-1,1494.50549450549,1.32245532245532,35.0468947774498
1743376434519,19:13:54.519,70,-1,1482.78388278388,1.33266733266733,35.0468947774498
1743376434539,19:13:54.539,70,-1,1473.99267399267,1.33311133311133,35.0468947774498
1743376434558,19:13:54.558,70,-1,1473.99267399267,1.33000333000333,35.0468947774498
1743376434578,19:13:54.578,70,-1,1471.06227106227,1.31934731934732,35.0468947774498
1743376434597,19:13:54.597,70,-1,1467.39926739927,1.31845931845932,35.0468947774498
1743376434617,19:13:54.617,70,-1,1461.53846153846,1.32378732378732,35.0468947774498
1743376434636,19:13:54.636,70,-1,1446.88644688645,1.33311133311133,35.0468947774498
1743376434656,19:13:54.656,70,-1,1427.83882783883,1.33355533355533,35.0468947774498
1743376434675,19:13:54.675,70,-1,1423.44322344322,1.32955932955933,35.0468947774498
1743376434695,19:13:54.695,70,-1,1422.71062271062,1.31979131979132,35.0468947774498
1743376434714,19:13:54.714,70,-1,1418.31501831502,1.31934731934732,35.0468947774498
1743376434734,19:13:54.734,70,-1,1405.86080586081,1.32556332556333,35.0468947774498
1743376434753,19:13:54.753,70,-1,1401.4652014652,1.33399933399933,35.0468947774498
1743376434773,19:13:54.773,70,-1,1384.61538461538,1.33399933399933,35.0468947774498
1743376434792,19:13:54.792,70,-1,1372.16117216117,1.32867132867133,35.0468947774498
1743376434812,19:13:54.812,70,-1,1374.35897435897,1.31934731934732,35.0468947774498
1743376434831,19:13:54.831,70,-1,1374.35897435897,1.31934731934732,35.0468947774498
1743376434851,19:13:54.851,67,-1,1367.03296703297,1.32689532689533,35.0468947774498
1743376434870,19:13:54.870,67,-1,1380.95238095238,1.33399933399933,35.0468947774498
1743376434890,19:13:54.890,67,-1,1386.81318681319,1.33355533355533,35.0468947774498
1743376434909,19:13:54.909,67,-1,1385.34798534799,1.32645132645133,35.0468947774498
1743376434929,19:13:54.929,67,-1,1375.09157509157,1.31890331890332,35.0468947774498
1743376434948,19:13:54.948,67,-1,1364.10256410256,1.32023532023532,35.0468947774498
1743376434968,19:13:54.968,67,-1,1356.77655677656,1.32822732822733,35.0468947774498
1743376434987,19:13:54.987,67,-1,1350.18315018315,1.33444333444333,35.0468947774498
1743376435007,19:13:55.007,67,-1,1346.52014652015,1.33311133311133,35.0468947774498
1743376435026,19:13:55.026,67,-1,1348.71794871795,1.32556332556333,35.0468947774498
1743376435046,19:13:55.046,67,-1,1358.24175824176,1.31845931845932,35.0468947774498
1743376435065,19:13:55.065,67,-1,1378.02197802198,1.32067932067932,35.0468947774498
1743376435085,19:13:55.085,67,-1,1411.72161172161,1.32867132867133,35.0468947774498
1743376435104,19:13:55.104,67,-1,1451.28205128205,1.33355533355533,35.0468947774498
1743376435124,19:13:55.124,67,-1,1490.10989010989,1.33266733266733,35.0468947774498
1743376435143,19:13:55.143,67,-1,1515.01831501831,1.32334332334332,35.0468947774498
1743376435163,19:13:55.163,67,-1,1531.86813186813,1.31757131757132,35.0468947774498
1743376435182,19:13:55.182,67,-1,1550.91575091575,1.32067932067932,35.0468947774498
1743376435202,19:13:55.202,67,-1,1574.35897435897,1.32955932955933,35.0468947774498
1743376435221,19:13:55.221,67,-1,1591.20879120879,1.33355533355533,35.0468947774498
1743376435241,19:13:55.241,67,-1,1584.61538461538,1.33222333222333,35.0518962275237
1743376435260,19:13:55.260,67,-1,1577.28937728938,1.32201132201132,35.0518962275237
1743376435280,19:13:55.280,67,-1,1594.13919413919,1.31757131757132,35.0518962275237
1743376435299,19:13:55.299,67,-1,1613.91941391941,1.32112332112332,35.0518962275237
1743376435319,19:13:55.319,67,-1,1613.18681318681,1.33044733044733,35.0518962275237
1743376435338,19:13:55.338,67,-1,1586.81318681319,1.33266733266733,35.0518962275237
1743376435358,19:13:55.358,67,-1,1569.23076923077,1.33089133089133,35.0518962275237
1743376435377,19:13:55.377,67,-1,1558.97435897436,1.32067932067932,35.0518962275237
1743376435397,19:13:55.397,67,-1,1550.91575091575,1.31712731712732,35.0518962275237
1743376435416,19:13:55.416,67,-1,1538.46153846154,1.32112332112332,35.0518962275237
1743376435436,19:13:55.436,67,-1,1515.01831501831,1.33089133089133,35.0518962275237
1743376435455,19:13:55.455,67,-1,1498.9010989011,1.33266733266733,35.0518962275237
1743376435475,19:13:55.475,67,-1,1497.4358974359,1.33000333000333,35.0518962275237
1743376435494,19:13:55.494,67,-1,1506.22710622711,1.31934731934732,35.0518962275237
1743376435514,19:13:55.514,67,-1,1509.89010989011,1.31712731712732,35.0518962275237
1743376435533,19:13:55.533,67,-1,1497.4358974359,1.32156732156732,35.0518962275237
1743376435553,19:13:55.553,67,-1,1481.31868131868,1.33133533133533,35.0518962275237
1743376435572,19:13:55.572,67,-1,1460.07326007326,1.33266733266733,35.0518962275237
1743376435592,19:13:55.592,67,-1,1449.81684981685,1.32911532911533,35.0518962275237
1743376435611,19:13:55.611,67,-1,1432.23443223443,1.31845931845932,35.0518962275237
1743376435631,19:13:55.631,67,-1,1412.45421245421,1.31712731712732,35.0518962275237
1743376435650,19:13:55.650,67,-1,1413.18681318681,1.32245532245532,35.0518962275237
1743376435670,19:13:55.670,67,-1,1420.51282051282,1.33177933177933,35.0518962275237
1743376435689,19:13:55.689,60,-1,1415.38461538462,1.33177933177933,35.0518962275237
1743376435709,19:13:55.709,60,-1,1397.8021978022,1.32733932733933,35.0518962275237
1743376435728,19:13:55.728,60,-1,1368.49816849817,1.31757131757132,35.0518962275237
1743376435748,19:13:55.748,60,-1,1353.84615384615,1.31668331668332,35.0518962275237
1743376435767,19:13:55.767,60,-1,1369.96336996337,1.32245532245532,35.0518962275237
1743376435787,19:13:55.787,60,-1,1386.08058608059,1.33133533133533,35.0518962275237
1743376435806,19:13:55.806,60,-1,1395.6043956044,1.33089133089133,35.0518962275237
1743376435826,19:13:55.826,60,-1,1397.8021978022,1.32556332556333,35.0518962275237
1743376435845,19:13:55.845,60,-1,1386.08058608059,1.31579531579532,35.0518962275237
1743376435865,19:13:55.865,60,-1,1380.21978021978,1.31668331668332,35.0518962275237
1743376435884,19:13:55.884,60,-1,1377.28937728938,1.32289932289932,35.0518962275237
1743376435904,19:13:55.904,60,-1,1377.28937728938,1.33044733044733,35.0518962275237
1743376435923,19:13:55.923,60,-1,1369.96336996337,1.32955932955933,35.0518962275237
1743376435943,19:13:55.943,60,-1,1368.49816849817,1.32334332334332,35.0518962275237
1743376435962,19:13:55.962,60,-1,1401.4652014652,1.31446331446331,35.0518962275237
1743376435982,19:13:55.982,60,-1,1447.61904761905,1.31535131535132,35.0518962275237
1743376436001,19:13:56.001,60,-1,1501.0989010989,1.32289932289932,35.0518962275237
1743376436021,19:13:56.021,60,-1,1546.52014652015,1.32955932955933,35.0518962275237
1743376436040,19:13:56.040,60,-1,1595.6043956044,1.32867132867133,35.0518962275237
1743376436060,19:13:56.060,60,-1,1643.95604395604,1.32112332112332,35.0518962275237
1743376436079,19:13:56.079,60,-1,1664.46886446886,1.31357531357531,35.0518962275237
1743376436099,19:13:56.099,60,-1,1680.58608058608,1.31579531579532,35.0518962275237
1743376436118,19:13:56.118,60,-1,1688.64468864469,1.32334332334332,35.0518962275237
1743376436138,19:13:56.138,60,-1,1689.37728937729,1.32867132867133,35.0518962275237
1743376436157,19:13:56.157,60,-1,1693.04029304029,1.32733932733933,35.0518962275237
1743376436177,19:13:56.177,60,-1,1695.9706959707,1.31845931845932,35.0518962275237
1743376436196,19:13:56.196,60,-1,1681.31868131868,1.31224331224331,35.0518962275237
1743376436216,19:13:56.216,60,-1,1646.88644688645,1.31490731490731,35.0518962275237
1743376436235,19:13:56.235,60,-1,1603.663003663,1.32334332334332,35.0468947774498
1743376436255,19:13:56.255,60,-1,1577.28937728938,1.32733932733933,35.0468947774498
1743376436274,19:13:56.274,60,-1,1569.23076923077,1.32511932511932,35.0468947774498
1743376436294,19:13:56.294,60,-1,1580.95238095238,1.31490731490731,35.0468947774498
1743376436313,19:13:56.313,60,-1,1574.35897435897,1.31002331002331,35.0468947774498
1743376436333,19:13:56.333,60,-1,1580.21978021978,1.31313131313131,35.0468947774498
1743376436352,19:13:56.352,60,-1,1577.28937728938,1.32201132201132,35.0468947774498
1743376436372,19:13:56.372,60,-1,1562.63736263736,1.32511932511932,35.0468947774498
1743376436391,19:13:56.391,60,-1,1534.06593406593,1.32245532245532,35.0468947774498
1743376436411,19:13:56.411,60,-1,1502.5641025641,1.31179931179931,35.0468947774498
1743376436430,19:13:56.430,60,-1,1481.31868131868,1.30824730824731,35.0468947774498
1743376436450,19:13:56.450,60,-1,1465.93406593407,1.31179931179931,35.0468947774498
1743376436469,19:13:56.469,60,-1,1462.27106227106,1.32112332112332,35.0468947774498
1743376436489,19:13:56.489,60,-1,1454.94505494505,1.32289932289932,35.0468947774498
1743376436508,19:13:56.508,60,-1,1440.29304029304,1.32023532023532,35.0468947774498
1743376436528,19:13:56.528,60,-1,1426.37362637363,1.30957930957931,35.0468947774498
1743376436547,19:13:56.547,60,-1,1410.98901098901,1.30647130647131,35.0468947774498
1743376436567,19:13:56.567,60,-1,1402.9304029304,1.31046731046731,35.0468947774498
1743376436586,19:13:56.586,60,-1,1387.54578754579,1.32023532023532,35.0468947774498
1743376436606,19:13:56.606,60,-1,1380.21978021978,1.32067932067932,35.0468947774498
1743376436625,19:13:56.625,60,-1,1378.02197802198,1.31712731712732,35.0468947774498
1743376436645,19:13:56.645,72,-1,1378.75457875458,1.30647130647131,35.0468947774498
1743376436664,19:13:56.664,72,-1,1383.15018315018,1.3046953046953,35.0468947774498
1743376436684,19:13:56.684,72,-1,1381.68498168498,1.30913530913531,35.0468947774498
1743376436703,19:13:56.703,72,-1,1370.69597069597,1.31845931845932,35.0468947774498
1743376436723,19:13:56.723,72,-1,1358.97435897436,1.31845931845932,35.0468947774498
1743376436742,19:13:56.742,72,-1,1361.90476190476,1.31401931401931,35.0468947774498
1743376436762,19:13:56.762,72,-1,1365.56776556777,1.3033633033633,35.0468947774498
1743376436781,19:13:56.781,72,-1,1369.23076923077,1.3024753024753,35.0468947774498
1743376436801,19:13:56.801,72,-1,1363.36996336996,1.30780330780331,35.0468947774498
1743376436820,19:13:56.820,72,-1,1358.24175824176,1.31623931623932,35.0468947774498
1743376436840,19:13:56.840,72,-1,1358.24175824176,1.31623931623932,35.0468947774498
1743376436859,19:13:56.859,72,-1,1371.42857142857,1.31046731046731,35.0468947774498
1743376436879,19:13:56.879,72,-1,1398.5347985348,1.3006993006993,35.0468947774498
1743376436898,19:13:56.898,72,-1,1440.29304029304,1.3006993006993,35.0468947774498
1743376436918,19:13:56.918,72,-1,1490.10989010989,1.30691530691531,35.0468947774498
1743376436937,19:13:56.937,72,-1,1548.71794871795,1.31446331446331,35.0468947774498
1743376436957,19:13:56.957,72,-1,1604.3956043956,1.31357531357531,35.0468947774498
1743376436976,19:13:56.976,72,-1,1652.01465201465,1.30735930735931,35.0468947774498
1743376436996,19:13:56.996,72,-1,1675.45787545788,1.2984792984793,35.0468947774498
1743376437015,19:13:57.015,72,-1,1686.44688644689,1.2993672993673,35.0468947774498
1743376437035,19:13:57.035,72,-1,1695.2380952381,1.30602730602731,35.0468947774498
1743376437054,19:13:57.054,72,-1,1706.22710622711,1.31268731268731,35.0468947774498
1743376437074,19:13:57.074,72,-1,1710.62271062271,1.31135531135531,35.0468947774498
1743376437093,19:13:57.093,72,-1,1713.55311355311,1.3033633033633,35.0468947774498
1743376437113,19:13:57.113,72,-1,1716.48351648352,1.2958152958153,35.0468947774498
1743376437132,19:13:57.132,72,-1,1706.22710622711,1.2971472971473,35.0468947774498
1743376437152,19:13:57.152,72,-1,1674.72527472527,1.3046953046953,35.0468947774498
1743376437171,19:13:57.171,72,-1,1641.02564102564,1.31002331002331,35.0468947774498
1743376437191,19:13:57.191,72,-1,1608.05860805861,1.30869130869131,35.0468947774498
1743376437210,19:13:57.210,72,-1,1587.54578754579,1.2998112998113,35.0468947774498
1743376437230,19:13:57.230,72,-1,1575.82417582418,1.29359529359529,35.0618991102092
1743376437249,19:13:57.249,72,-1,1557.50915750916,1.2953712953713,35.0618991102092
1743376437269,19:13:57.269,72,-1,1556.04395604396,1.3042513042513,35.0618991102092
1743376437288,19:13:57.288,72,-1,1557.50915750916,1.30780330780331,35.0618991102092
1743376437308,19:13:57.308,72,-1,1548.71794871795,1.30647130647131,35.0618991102092
1743376437327,19:13:57.327,72,-1,1529.67032967033,1.2967032967033,35.0618991102092
1743376437347,19:13:57.347,72,-1,1505.49450549451,1.29093129093129,35.0618991102092
1743376437366,19:13:57.366,72,-1,1473.99267399267,1.29359529359529,35.0618991102092
1743376437386,19:13:57.386,72,-1,1449.08424908425,1.3029193029193,35.0618991102092
1743376437405,19:13:57.405,72,-1,1445.42124542125,1.30602730602731,35.0618991102092
1743376437425,19:13:57.425,63,-1,1435.89743589744,1.3042513042513,35.0618991102092
1743376437444,19:13:57.444,63,-1,1422.71062271062,1.29359529359529,35.0618991102092
1743376437464,19:13:57.464,63,-1,1406.59340659341,1.28915528915529,35.0618991102092
1743376437483,19:13:57.483,63,-1,1399.2673992674,1.29270729270729,35.0618991102092
1743376437503,19:13:57.503,63,-1,1392.67399267399,1.3020313020313,35.0618991102092
1743376437522,19:13:57.522,63,-1,1373.62637362637,1.3038073038073,35.0618991102092
1743376437542,19:13:57.542,63,-1,1361.17216117216,1.3015873015873,35.0618991102092
1743376437561,19:13:57.561,63,-1,1361.17216117216,1.29048729048729,35.0618991102092
1743376437581,19:13:57.581,63,-1,1358.97435897436,1.28737928737929,35.0618991102092
1743376437600,19:13:57.600,63,-1,1347.98534798535,1.29093129093129,35.0618991102092
1743376437620,19:13:57.620,63,-1,1334.06593406593,1.3006993006993,35.0618991102092
1743376437639,19:13:57.639,63,-1,1336.26373626374,1.3015873015873,35.0618991102092
1743376437659,19:13:57.659,63,-1,1343.58974358974,1.2984792984793,35.0618991102092
1743376437678,19:13:57.678,63,-1,1337.72893772894,1.28737928737929,35.0618991102092
1743376437698,19:13:57.698,63,-1,1327.47252747253,1.28560328560329,35.0618991102092
1743376437717,19:13:57.717,63,-1,1323.80952380952,1.29004329004329,35.0618991102092
1743376437737,19:13:57.737,63,-1,1320.14652014652,1.2993672993673,35.0618991102092
1743376437756,19:13:57.756,63,-1,1306.22710622711,1.2998112998113,35.0618991102092
1743376437776,19:13:57.776,63,-1,1284.98168498168,1.2953712953713,35.0618991102092
1743376437795,19:13:57.795,63,-1,1259.34065934066,1.28515928515929,35.0618991102092
1743376437815,19:13:57.815,63,-1,1262.27106227106,1.28382728382728,35.0618991102092
1743376437834,19:13:57.834,63,-1,1302.5641025641,1.28871128871129,35.0618991102092
1743376437854,19:13:57.854,63,-1,1378.02197802198,1.2975912975913,35.0618991102092
1743376437873,19:13:57.873,63,-1,1473.99267399267,1.2971472971473,35.0618991102092
1743376437893,19:13:57.893,63,-1,1558.24175824176,1.29226329226329,35.0618991102092
1743376437912,19:13:57.912,63,-1,1614.65201465201,1.28205128205128,35.0618991102092
1743376437932,19:13:57.932,63,-1,1643.22344322344,1.28205128205128,35.0618991102092
1743376437951,19:13:57.951,63,-1,1666.66666666667,1.28782328782329,35.0618991102092
1743376437971,19:13:57.971,63,-1,1693.77289377289,1.2958152958153,35.0618991102092
1743376437990,19:13:57.990,63,-1,1719.41391941392,1.29492729492729,35.0618991102092
1743376438010,19:13:58.010,63,-1,1729.67032967033,1.28871128871129,35.0618991102092
1743376438029,19:13:58.029,63,-1,1743.58974358974,1.27983127983128,35.0618991102092
1743376438049,19:13:58.049,63,-1,1742.12454212454,1.28027528027528,35.0618991102092
1743376438068,19:13:58.068,63,-1,1716.48351648352,1.28693528693529,35.0618991102092
1743376438088,19:13:58.088,63,-1,1684.24908424908,1.29359529359529,35.0618991102092
1743376438107,19:13:58.107,63,-1,1646.88644688645,1.29226329226329,35.0618991102092
1743376438127,19:13:58.127,63,-1,1603.663003663,1.28515928515929,35.0618991102092
1743376438146,19:13:58.146,63,-1,1579.48717948718,1.27716727716728,35.0618991102092
1743376438166,19:13:58.166,63,-1,1552.38095238095,1.27849927849928,35.0618991102092
1743376438185,19:13:58.185,63,-1,1536.99633699634,1.28560328560329,35.0618991102092
1743376438205,19:13:58.205,63,-1,1544.32234432234,1.29137529137529,35.0618991102092
1743376438224,19:13:58.224,63,-1,1542.12454212454,1.29004329004329,35.0618991102092
1743376438244,19:13:58.244,63,-1,1521.61172161172,1.28160728160728,35.0618991102092
1743376438263,19:13:58.263,63,-1,1501.0989010989,1.27494727494727,35.0618991102092
1743376438283,19:13:58.283,63,-1,1489.37728937729,1.27672327672328,35.0618991102092
1743376438302,19:13:58.302,77,-1,1465.93406593407,1.28471528471528,35.0618991102092
1743376438322,19:13:58.322,77,-1,1452.74725274725,1.28915528915529,35.0618991102092
1743376438341,19:13:58.341,77,-1,1435.89743589744,1.28782328782329,35.0618991102092
1743376438361,19:13:58.361,77,-1,1424.90842490842,1.27849927849928,35.0618991102092
1743376438380,19:13:58.380,77,-1,1413.91941391941,1.27272727272727,35.0618991102092
1743376438400,19:13:58.400,77,-1,1402.9304029304,1.27539127539128,35.0618991102092
1743376438419,19:13:58.419,77,-1,1389.01098901099,1.28382728382728,35.0618991102092
1743376438439,19:13:58.439,77,-1,1370.69597069597,1.28693528693529,35.0618991102092
1743376438458,19:13:58.458,77,-1,1352.38095238095,1.28515928515929,35.0618991102092
1743376438478,19:13:58.478,77,-1,1332.60073260073,1.27450327450327,35.0618991102092
1743376438497,19:13:58.497,77,-1,1328.93772893773,1.26961926961927,35.0618991102092
1743376438517,19:13:58.517,77,-1,1333.33333333333,1.27272727272727,35.0618991102092
1743376438536,19:13:58.536,77,-1,1332.60073260073,1.28205128205128,35.0618991102092
1743376438556,19:13:58.556,77,-1,1328.93772893773,1.28382728382728,35.0618991102092
1743376438575,19:13:58.575,77,-1,1313.55311355311,1.28116328116328,35.0618991102092
1743376438595,19:13:58.595,77,-1,1301.0989010989,1.27050727050727,35.0618991102092
1743376438614,19:13:58.614,77,-1,1296.7032967033,1.26651126651127,35.0618991102092
1743376438634,19:13:58.634,77,-1,1297.4358974359,1.27006327006327,35.0618991102092
1743376438653,19:13:58.653,77,-1,1298.9010989011,1.27938727938728,35.0618991102092
1743376438673,19:13:58.673,77,-1,1291.57509157509,1.28071928071928,35.0618991102092
1743376438692,19:13:58.692,77,-1,1285.71428571429,1.27761127761128,35.0618991102092
1743376438712,19:13:58.712,77,-1,1280.58608058608,1.26651126651127,35.0618991102092
1743376438731,19:13:58.731,77,-1,1272.52747252747,1.26429126429126,35.0618991102092
1743376438751,19:13:58.751,77,-1,1278.38827838828,1.26873126873127,35.0618991102092
1743376438770,19:13:58.770,77,-1,1308.42490842491,1.27805527805528,35.0618991102092
1743376438790,19:13:58.790,77,-1,1365.56776556777,1.27849927849928,35.0618991102092
1743376438809,19:13:58.809,77,-1,1432.96703296703,1.27494727494727,35.0618991102092
1743376438829,19:13:58.829,77,-1,1432.96703296703,1.27494727494727,35.0618991102092
1743376438848,19:13:58.848,77,-1,1545.78754578755,1.26251526251526,35.0618991102092
1743376438868,19:13:58.868,77,-1,1594.13919413919,1.26739926739927,35.0618991102092
1743376438887,19:13:58.887,77,-1,1621.24542124542,1.27672327672328,35.0618991102092
1743376438907,19:13:58.907,77,-1,1630.76923076923,1.27627927627928,35.0618991102092
1743376438926,19:13:58.926,77,-1,1624.17582417582,1.27183927183927,35.0618991102092
1743376438946,19:13:58.946,77,-1,1634.43223443223,1.26162726162726,35.0618991102092
1743376438965,19:13:58.965,77,-1,1640.29304029304,1.26118326118326,35.0618991102092
1743376438985,19:13:58.985,77,-1,1648.35164835165,1.26651126651127,35.0618991102092
1743376439004,19:13:59.004,77,-1,1648.35164835165,1.27450327450327,35.0618991102092
1743376439024,19:13:59.024,77,-1,1624.17582417582,1.27405927405927,35.0618991102092
1743376439043,19:13:59.043,77,-1,1591.20879120879,1.26873126873127,35.0618991102092
1743376439063,19:13:59.063,77,-1,1538.46153846154,1.25896325896326,35.0618991102092
1743376439082,19:13:59.082,77,-1,1501.8315018315,1.25940725940726,35.0618991102092
1743376439102,19:13:59.102,77,-1,1487.17948717949,1.26562326562327,35.0618991102092
1743376439121,19:13:59.121,77,-1,1480.58608058608,1.27272727272727,35.0618991102092
1743376439141,19:13:59.141,77,-1,1458.60805860806,1.27183927183927,35.0618991102092
1743376439160,19:13:59.160,77,-1,1444.68864468864,1.26473526473526,35.0618991102092
1743376439180,19:13:59.180,77,-1,1447.61904761905,1.25629925629926,35.0618991102092
1743376439199,19:13:59.199,68,-1,1443.22344322344,1.25763125763126,35.0618991102092
1743376439219,19:13:59.219,68,-1,1423.44322344322,1.26473526473526,35.0769033905817
1743376439238,19:13:59.238,68,-1,1404.3956043956,1.27050727050727,35.0769033905817
1743376439258,19:13:59.258,68,-1,1397.8021978022,1.26873126873127,35.0769033905817
1743376439277,19:13:59.277,68,-1,1393.40659340659,1.26029526029526,35.0769033905817
1743376439297,19:13:59.297,68,-1,1389.74358974359,1.25363525363525,35.0769033905817
1743376439316,19:13:59.316,68,-1,1383.15018315018,1.25541125541126,35.0769033905817
1743376439336,19:13:59.336,68,-1,1378.75457875458,1.26295926295926,35.0769033905817
1743376439355,19:13:59.355,68,-1,1390.47619047619,1.26739926739927,35.0769033905817
1743376439375,19:13:59.375,68,-1,1384.61538461538,1.26562326562327,35.0769033905817
1743376439394,19:13:59.394,68,-1,1357.50915750916,1.25629925629926,35.0769033905817
1743376439414,19:13:59.414,68,-1,1327.47252747253,1.25052725052725,35.0769033905817
1743376439433,19:13:59.433,68,-1,1306.95970695971,1.25274725274725,35.0769033905817
1743376439453,19:13:59.453,68,-1,1286.44688644689,1.26073926073926,35.0769033905817
1743376439472,19:13:59.472,68,-1,1268.86446886447,1.26384726384726,35.0769033905817
1743376439492,19:13:59.492,68,-1,1271.06227106227,1.26162726162726,35.0769033905817
1743376439511,19:13:59.511,68,-1,1282.05128205128,1.25185925185925,35.0769033905817
1743376439531,19:13:59.531,68,-1,1275.45787545788,1.24653124653125,35.0769033905817
1743376439550,19:13:59.550,68,-1,1260.80586080586,1.24963924963925,35.0769033905817
1743376439570,19:13:59.570,68,-1,1268.13186813187,1.25807525807526,35.0769033905817
1743376439589,19:13:59.589,68,-1,1272.52747252747,1.26029526029526,35.0769033905817
1743376439609,19:13:59.609,68,-1,1266.66666666667,1.25807525807526,35.0769033905817
1743376439628,19:13:59.628,68,-1,1265.93406593407,1.24741924741925,35.0769033905817
1743376439648,19:13:59.648,68,-1,1263.73626373626,1.24342324342324,35.0769033905817
1743376439667,19:13:59.667,68,-1,1266.66666666667,1.24653124653125,35.0769033905817
1743376439687,19:13:59.687,68,-1,1296.7032967033,1.25585525585526,35.0769033905817
1743376439706,19:13:59.706,68,-1,1348.71794871795,1.25674325674326,35.0769033905817
1743376439726,19:13:59.726,68,-1,1400,1.25407925407925,35.0769033905817
1743376439745,19:13:59.745,68,-1,1460.07326007326,1.24386724386724,35.0769033905817
1743376439765,19:13:59.765,68,-1,1509.15750915751,1.24120324120324,35.0769033905817
1743376439784,19:13:59.784,68,-1,1547.25274725275,1.24519924519925,35.0769033905817
1743376439804,19:13:59.804,68,-1,1578.75457875458,1.25452325452325,35.0769033905817
1743376439823,19:13:59.823,68,-1,1597.0695970696,1.25541125541126,35.0769033905817
1743376439843,19:13:59.843,68,-1,1605.12820512821,1.25185925185925,35.0769033905817
1743376439862,19:13:59.862,68,-1,1583.15018315018,1.24120324120324,35.0769033905817
1743376439882,19:13:59.882,68,-1,1575.09157509157,1.23942723942724,35.0769033905817
1743376439901,19:13:59.901,68,-1,1578.02197802198,1.24386724386724,35.0769033905817
1743376439921,19:13:59.921,68,-1,1562.63736263736,1.25319125319125,35.0769033905817
1743376439940,19:13:59.940,68,-1,1553.11355311355,1.25274725274725,35.0769033905817
1743376439960,19:13:59.960,68,-1,1533.33333333333,1.24875124875125,35.0769033905817
1743376439979,19:13:59.979,68,-1,1498.9010989011,1.23853923853924,35.0769033905817
1743376439999,19:13:59.999,68,-1,1485.71428571429,1.23765123765124,35.0769033905817
1743376440018,19:14:00.018,68,-1,1471.79487179487,1.24253524253524,35.0769033905817
1743376440038,19:14:00.038,67,-1,1446.15384615385,1.25097125097125,35.0769033905817
1743376440057,19:14:00.057,67,-1,1441.75824175824,1.25008325008325,35.0769033905817
1743376440077,19:14:00.077,67,-1,1434.43223443223,1.24475524475524,35.0769033905817
1743376440096,19:14:00.096,67,-1,1414.65201465201,1.23498723498723,35.0769033905817
1743376440116,19:14:00.116,67,-1,1397.0695970696,1.23498723498723,35.0769033905817
1743376440135,19:14:00.135,67,-1,1388.27838827839,1.24075924075924,35.0769033905817
1743376440155,19:14:00.155,67,-1,1390.47619047619,1.24875124875125,35.0769033905817
1743376440174,19:14:00.174,67,-1,1377.28937728938,1.24741924741925,35.0769033905817
1743376440194,19:14:00.194,67,-1,1356.04395604396,1.24075924075924,35.0769033905817
1743376440213,19:14:00.213,67,-1,1352.38095238095,1.23187923187923,35.0719019696116
1743376440233,19:14:00.233,67,-1,1351.64835164835,1.23321123321123,35.0719019696116
1743376440252,19:14:00.252,67,-1,1349.45054945055,1.23987123987124,35.0719019696116
1743376440272,19:14:00.272,67,-1,1327.47252747253,1.24653124653125,35.0719019696116
1743376440291,19:14:00.291,67,-1,1312.08791208791,1.24519924519925,35.0719019696116
1743376440311,19:14:00.311,67,-1,1301.0989010989,1.23809523809524,35.0719019696116
1743376440330,19:14:00.330,67,-1,1290.84249084249,1.23054723054723,35.0719019696116
1743376440350,19:14:00.350,67,-1,1296.7032967033,1.23321123321123,35.0719019696116
1743376440369,19:14:00.369,67,-1,1295.9706959707,1.24120324120324,35.0719019696116
1743376440389,19:14:00.389,67,-1,1290.84249084249,1.24741924741925,35.0719019696116
1743376440408,19:14:00.408,67,-1,1294.50549450549,1.24697524697525,35.0719019696116
1743376440428,19:14:00.428,67,-1,1301.8315018315,1.23942723942724,35.0719019696116
1743376440447,19:14:00.447,67,-1,1307.69230769231,1.23454323454323,35.0719019696116
1743376440467,19:14:00.467,67,-1,1297.4358974359,1.23853923853924,35.0719019696116
1743376440486,19:14:00.486,67,-1,1288.64468864469,1.24875124875125,35.0719019696116
1743376440506,19:14:00.506,67,-1,1278.38827838828,1.25541125541126,35.0719019696116
1743376440525,19:14:00.525,67,-1,1304.0293040293,1.25585525585526,35.0719019696116
1743376440545,19:14:00.545,67,-1,1363.36996336996,1.24875124875125,35.0719019696116
1743376440564,19:14:00.564,67,-1,1427.83882783883,1.24564324564325,35.0719019696116
1743376440584,19:14:00.584,67,-1,1473.99267399267,1.25052725052725,35.0719019696116
1743376440603,19:14:00.603,67,-1,1494.50549450549,1.26207126207126,35.0719019696116
1743376440623,19:14:00.623,67,-1,1499.6336996337,1.26784326784327,35.0719019696116
1743376440642,19:14:00.642,67,-1,1517.94871794872,1.26917526917527,35.0719019696116
1743376440662,19:14:00.662,67,-1,1528.93772893773,1.26251526251526,35.0719019696116
1743376440681,19:14:00.681,67,-1,1531.86813186813,1.26207126207126,35.0719019696116
1743376440701,19:14:00.701,67,-1,1529.67032967033,1.26917526917527,35.0719019696116
1743376440720,19:14:00.720,67,-1,1517.94871794872,1.28160728160728,35.0719019696116
1743376440740,19:14:00.740,67,-1,1500.3663003663,1.28649128649129,35.0719019696116
1743376440759,19:14:00.759,67,-1,1452.01465201465,1.28693528693529,35.0719019696116
1743376440779,19:14:00.779,67,-1,1423.44322344322,1.27894327894328,35.0719019696116
1743376440798,19:14:00.798,67,-1,1412.45421245421,1.27849927849928,35.0719019696116
1743376440818,19:14:00.818,67,-1,1411.72161172161,1.28471528471528,35.0719019696116
1743376440837,19:14:00.837,67,-1,1411.72161172161,1.28471528471528,35.0719019696116
1743376440857,19:14:00.857,67,-1,1405.86080586081,1.2980352980353,35.0719019696116
1743376440876,19:14:00.876,67,-1,1399.2673992674,1.2971472971473,35.0719019696116
1743376440896,19:14:00.896,67,-1,1397.0695970696,1.28915528915529,35.0719019696116
1743376440915,19:14:00.915,67,-1,1401.4652014652,1.28915528915529,35.0719019696116
1743376440935,19:14:00.935,67,-1,1403.663003663,1.2958152958153,35.0719019696116
1743376440954,19:14:00.954,67,-1,1385.34798534799,1.30647130647131,35.0719019696116
1743376440974,19:14:00.974,72,-1,1364.83516483516,1.30824730824731,35.0719019696116
1743376440993,19:14:00.993,72,-1,1345.78754578755,1.30602730602731,35.0719019696116
1743376441013,19:14:01.013,72,-1,1339.92673992674,1.2984792984793,35.0719019696116
1743376441032,19:14:01.032,72,-1,1335.53113553114,1.2998112998113,35.0719019696116
1743376441052,19:14:01.052,72,-1,1330.40293040293,1.30647130647131,35.0719019696116
1743376441071,19:14:01.071,72,-1,1320.87912087912,1.31579531579532,35.0719019696116
1743376441091,19:14:01.091,72,-1,1306.22710622711,1.31668331668332,35.0719019696116
1743376441110,19:14:01.110,72,-1,1299.6336996337,1.31401931401931,35.0719019696116
1743376441130,19:14:01.130,72,-1,1295.9706959707,1.30691530691531,35.0719019696116
1743376441149,19:14:01.149,72,-1,1290.84249084249,1.30957930957931,35.0719019696116
1743376441169,19:14:01.169,72,-1,1289.37728937729,1.31757131757132,35.0719019696116
1743376441188,19:14:01.188,72,-1,1292.30769230769,1.32556332556333,35.0719019696116
1743376441208,19:14:01.208,72,-1,1292.30769230769,1.32556332556333,35.081904805731
1743376441227,19:14:01.227,72,-1,1293.77289377289,1.32156732156732,35.081904805731
1743376441247,19:14:01.247,72,-1,1290.10989010989,1.31579531579532,35.081904805731
1743376441266,19:14:01.266,72,-1,1267.39926739927,1.31934731934732,35.081904805731
1743376441286,19:14:01.286,72,-1,1255.67765567766,1.32733932733933,35.081904805731
1743376441305,19:14:01.305,72,-1,1249.81684981685,1.33399933399933,35.081904805731
1743376441325,19:14:01.325,72,-1,1253.47985347985,1.33355533355533,35.081904805731
1743376441344,19:14:01.344,72,-1,1271.79487179487,1.32822732822733,35.081904805731
1743376441364,19:14:01.364,72,-1,1306.95970695971,1.32245532245532,35.081904805731
1743376441383,19:14:01.383,72,-1,1339.19413919414,1.32511932511932,35.081904805731
1743376441403,19:14:01.403,72,-1,1373.62637362637,1.33133533133533,35.081904805731
1743376441422,19:14:01.422,72,-1,1413.18681318681,1.33399933399933,35.081904805731
1743376441442,19:14:01.442,72,-1,1455.67765567766,1.32911532911533,35.081904805731
1743376441461,19:14:01.461,72,-1,1497.4358974359,1.31757131757132,35.081904805731
1743376441481,19:14:01.481,72,-1,1498.1684981685,1.30780330780331,35.081904805731
1743376441500,19:14:01.500,72,-1,1486.44688644689,1.30558330558331,35.081904805731
1743376441520,19:14:01.520,72,-1,1489.37728937729,1.30824730824731,35.081904805731
1743376441539,19:14:01.539,72,-1,1499.6336996337,1.30691530691531,35.081904805731
1743376441559,19:14:01.559,72,-1,1502.5641025641,1.3002553002553,35.081904805731
1743376441578,19:14:01.578,72,-1,1497.4358974359,1.28915528915529,35.081904805731
1743376441598,19:14:01.598,72,-1,1482.78388278388,1.28116328116328,35.081904805731
1743376441617,19:14:01.617,72,-1,1470.32967032967,1.28160728160728,35.081904805731
1743376441637,19:14:01.637,72,-1,1444.68864468864,1.28604728604729,35.081904805731
1743376441656,19:14:01.656,72,-1,1419.04761904762,1.28515928515929,35.081904805731
1743376441676,19:14:01.676,72,-1,1408.79120879121,1.27983127983128,35.081904805731
1743376441695,19:14:01.695,72,-1,1407.32600732601,1.26873126873127,35.081904805731
1743376441715,19:14:01.715,72,-1,1408.79120879121,1.26295926295926,35.081904805731
1743376441734,19:14:01.734,72,-1,1408.05860805861,1.26473526473526,35.081904805731
1743376441754,19:14:01.754,72,-1,1397.0695970696,1.27272727272727,35.081904805731
1743376441773,19:14:01.773,72,-1,1380.21978021978,1.27405927405927,35.081904805731
1743376441793,19:14:01.793,72,-1,1364.10256410256,1.27183927183927,35.081904805731
1743376441812,19:14:01.812,72,-1,1346.52014652015,1.26118326118326,35.081904805731
1743376441832,19:14:01.832,72,-1,1341.39194139194,1.25718725718726,35.081904805731
1743376441851,19:14:01.851,72,-1,1339.92673992674,1.25940725940726,35.081904805731
1743376441871,19:14:01.871,72,-1,1331.86813186813,1.26828726828727,35.081904805731
1743376441890,19:14:01.890,72,-1,1342.85714285714,1.26917526917527,35.081904805731
1743376441910,19:14:01.910,72,-1,1347.25274725275,1.26695526695527,35.081904805731
1743376441929,19:14:01.929,64,-1,1343.58974358974,1.25674325674326,35.081904805731
1743376441949,19:14:01.949,64,-1,1332.60073260073,1.25452325452325,35.081904805731
1743376441968,19:14:01.968,64,-1,1317.94871794872,1.25851925851926,35.081904805731
1743376441988,19:14:01.988,64,-1,1299.6336996337,1.26739926739927,35.081904805731
1743376442007,19:14:02.007,64,-1,1283.51648351648,1.26739926739927,35.081904805731
1743376442027,19:14:02.027,64,-1,1268.13186813187,1.26340326340326,35.081904805731
1743376442046,19:14:02.046,64,-1,1263.00366300366,1.25319125319125,35.081904805731
1743376442066,19:14:02.066,64,-1,1265.20146520147,1.25230325230325,35.081904805731
1743376442085,19:14:02.085,64,-1,1271.79487179487,1.25674325674326,35.081904805731
1743376442105,19:14:02.105,64,-1,1279.12087912088,1.26473526473526,35.081904805731
1743376442124,19:14:02.124,64,-1,1281.31868131868,1.26429126429126,35.081904805731
1743376442144,19:14:02.144,64,-1,1280.58608058608,1.25896325896326,35.081904805731
1743376442163,19:14:02.163,64,-1,1271.79487179487,1.24875124875125,35.081904805731
1743376442183,19:14:02.183,64,-1,1262.27106227106,1.24697524697525,35.081904805731
1743376442202,19:14:02.202,64,-1,1258.60805860806,1.25097125097125,35.0869062150596
1743376442222,19:14:02.222,64,-1,1262.27106227106,1.25807525807526,35.0869062150596
1743376442241,19:14:02.241,64,-1,1281.31868131868,1.25807525807526,35.0869062150596
1743376442261,19:14:02.261,64,-1,1297.4358974359,1.25452325452325,35.0869062150596
1743376442280,19:14:02.280,64,-1,1329.67032967033,1.24786324786325,35.0869062150596
1743376442300,19:14:02.300,64,-1,1364.10256410256,1.25274725274725,35.0869062150596
1743376442319,19:14:02.319,64,-1,1400.7326007326,1.26429126429126,35.0869062150596
1743376442339,19:14:02.339,64,-1,1425.64102564103,1.27761127761128,35.0869062150596
1743376442358,19:14:02.358,64,-1,1449.08424908425,1.28205128205128,35.0869062150596
1743376442378,19:14:02.378,64,-1,1490.10989010989,1.28027528027528,35.0869062150596
1743376442397,19:14:02.397,64,-1,1512.08791208791,1.27805527805528,35.0869062150596
1743376442417,19:14:02.417,64,-1,1521.61172161172,1.28649128649129,35.0869062150596
1743376442436,19:14:02.436,64,-1,1521.61172161172,1.3011433011433,35.0869062150596
1743376442456,19:14:02.456,64,-1,1510.62271062271,1.31446331446331,35.0869062150596
1743376442475,19:14:02.475,64,-1,1483.51648351648,1.31979131979132,35.0869062150596
1743376442495,19:14:02.495,64,-1,1449.08424908425,1.31934731934732,35.0869062150596
1743376442514,19:14:02.514,64,-1,1426.37362637363,1.32201132201132,35.0869062150596
1743376442534,19:14:02.534,64,-1,1407.32600732601,1.33222333222333,35.0869062150596
1743376442553,19:14:02.553,64,-1,1401.4652014652,1.34776334776335,35.0869062150596
1743376442573,19:14:02.573,64,-1,1397.0695970696,1.35841935841936,35.0869062150596
1743376442592,19:14:02.592,64,-1,1382.41758241758,1.36197136197136,35.0869062150596
1743376442612,19:14:02.612,64,-1,1370.69597069597,1.35975135975136,35.0869062150596
1743376442631,19:14:02.631,64,-1,1381.68498168498,1.36063936063936,35.0869062150596
1743376442651,19:14:02.651,64,-1,1396.336996337,1.36818736818737,35.0869062150596
1743376442670,19:14:02.670,64,-1,1385.34798534799,1.38150738150738,35.0869062150596
1743376442690,19:14:02.690,64,-1,1364.83516483516,1.38772338772339,35.0869062150596
1743376442709,19:14:02.709,64,-1,1344.32234432234,1.38861138861139,35.0869062150596
1743376442729,19:14:02.729,64,-1,1321.61172161172,1.38417138417138,35.0869062150596
1743376442748,19:14:02.748,64,-1,1304.0293040293,1.38283938283938,35.0869062150596
1743376442768,19:14:02.768,64,-1,1283.51648351648,1.38727938727939,35.0869062150596
1743376442788,19:14:02.787,64,-1,1280.58608058608,1.3970473970474,35.0869062150596
1743376442807,19:14:02.807,64,-1,1276.92307692308,1.3979353979354,35.0869062150596
1743376442827,19:14:02.826,64,-1,1276.92307692308,1.3979353979354,35.0869062150596
1743376442866,19:14:02.865,64,-1,1268.13186813187,1.38150738150738,35.0869062150596
1743376442885,19:14:02.885,63,-1,1258.60805860806,1.38283938283938,35.0869062150596
1743376442905,19:14:02.905,63,-1,1266.66666666667,1.38772338772339,35.0869062150596
1743376442924,19:14:02.924,63,-1,1280.58608058608,1.38505938505939,35.0869062150596
1743376442944,19:14:02.944,63,-1,1297.4358974359,1.37973137973138,35.0869062150596
1743376442963,19:14:02.963,63,-1,1306.95970695971,1.36996336996337,35.0869062150596
1743376442983,19:14:02.983,63,-1,1301.8315018315,1.36729936729937,35.0869062150596
1743376443002,19:14:03.002,63,-1,1276.19047619048,1.37173937173937,35.0869062150596
1743376443022,19:14:03.022,63,-1,1244.68864468864,1.38061938061938,35.0869062150596
1743376443041,19:14:03.041,63,-1,1241.02564102564,1.38461538461538,35.0869062150596
1743376443061,19:14:03.061,63,-1,1244.68864468864,1.38639138639139,35.0869062150596
1743376443080,19:14:03.080,63,-1,1253.47985347985,1.38106338106338,35.0869062150596
1743376443100,19:14:03.100,63,-1,1252.01465201465,1.38505938505939,35.0869062150596
1743376443119,19:14:03.119,63,-1,1242.49084249084,1.39393939393939,35.0869062150596
1743376443139,19:14:03.139,63,-1,1251.28205128205,1.40592740592741,35.0869062150596
1743376443158,19:14:03.158,63,-1,1268.13186813187,1.40947940947941,35.0869062150596
1743376443178,19:14:03.178,63,-1,1288.64468864469,1.41081141081141,35.0869062150596
1743376443197,19:14:03.197,63,-1,1306.95970695971,1.40681540681541,35.0869062150596
1743376443217,19:14:03.217,63,-1,1323.07692307692,1.41125541125541,35.0869062150596
1743376443236,19:14:03.236,63,-1,1337.72893772894,1.42057942057942,35.0869062150596
1743376443256,19:14:03.256,63,-1,1364.10256410256,1.43212343212343,35.0869062150596
1743376443275,19:14:03.275,63,-1,1404.3956043956,1.43523143523144,35.0869062150596
1743376443295,19:14:03.295,63,-1,1432.23443223443,1.43434343434343,35.0869062150596
1743376443314,19:14:03.314,63,-1,1449.81684981685,1.42857142857143,35.0869062150596
1743376443334,19:14:03.334,63,-1,1453.47985347985,1.43212343212343,35.0869062150596
1743376443353,19:14:03.353,63,-1,1456.41025641026,1.44055944055944,35.0869062150596
1743376443373,19:14:03.373,63,-1,1453.47985347985,1.45121545121545,35.0869062150596
1743376443392,19:14:03.392,63,-1,1454.94505494505,1.45121545121545,35.0869062150596
1743376443412,19:14:03.412,63,-1,1454.21245421245,1.45121545121545,35.0869062150596
1743376443431,19:14:03.431,63,-1,1443.95604395604,1.45121545121545,35.0869062150596
1743376443451,19:14:03.451,63,-1,1433.69963369963,1.45121545121545,35.0869062150596
1743376443470,19:14:03.470,63,-1,1422.71062271062,1.47765567765568,35.0869062150596
1743376443490,19:14:03.490,63,-1,1412.45421245421,1.48351648351648,35.0869062150596
1743376443509,19:14:03.509,63,-1,1405.12820512821,1.48058608058608,35.0869062150596
1743376443529,19:14:03.529,63,-1,1395.6043956044,1.47179487179487,35.0869062150596
1743376443548,19:14:03.548,63,-1,1383.15018315018,1.47179487179487,35.0869062150596
1743376443568,19:14:03.568,63,-1,1363.36996336996,1.48351648351648,35.0869062150596
1743376443587,19:14:03.587,63,-1,1358.97435897436,1.4967032967033,35.0869062150596
1743376443607,19:14:03.607,63,-1,1352.38095238095,1.4996336996337,35.0869062150596
1743376443626,19:14:03.626,63,-1,1351.64835164835,1.4967032967033,35.0869062150596
1743376443646,19:14:03.646,63,-1,1358.97435897436,1.48644688644689,35.0869062150596
1743376443665,19:14:03.665,63,-1,1357.50915750916,1.48644688644689,35.0869062150596
1743376443685,19:14:03.685,63,-1,1352.38095238095,1.4967032967033,35.0869062150596
1743376443704,19:14:03.704,63,-1,1342.12454212454,1.50989010989011,35.0869062150596
1743376443724,19:14:03.724,63,-1,1324.54212454212,1.51135531135531,35.0869062150596
1743376443743,19:14:03.743,63,-1,1304.7619047619,1.50989010989011,35.0869062150596
1743376443763,19:14:03.763,63,-1,1295.2380952381,1.4967032967033,35.0869062150596
1743376443782,19:14:03.782,63,-1,1289.37728937729,1.4996336996337,35.0869062150596
1743376443802,19:14:03.802,63,-1,1301.0989010989,1.50989010989011,35.0869062150596
1743376443821,19:14:03.821,63,-1,1313.55311355311,1.52600732600733,35.0869062150596
1743376443841,19:14:03.841,63,-1,1301.0989010989,1.52747252747253,35.0869062150596
1743376443860,19:14:03.860,63,-1,1281.31868131868,1.52747252747253,35.0869062150596
1743376443880,19:14:03.880,63,-1,1291.57509157509,1.51282051282051,35.0869062150596
1743376443899,19:14:03.899,63,-1,1288.64468864469,1.51575091575092,35.0869062150596
1743376443919,19:14:03.919,63,-1,1287.91208791209,1.52454212454212,35.0869062150596
1743376443938,19:14:03.938,63,-1,1298.1684981685,1.53919413919414,35.0869062150596
1743376443958,19:14:03.958,63,-1,1299.6336996337,1.53479853479853,35.0869062150596
1743376443977,19:14:03.977,63,-1,1301.0989010989,1.53040293040293,35.0869062150596
1743376443997,19:14:03.997,63,-1,1290.10989010989,1.51428571428571,35.0869062150596
1743376444016,19:14:04.016,63,-1,1280.58608058608,1.51428571428571,35.0869062150596
1743376444036,19:14:04.036,63,-1,1279.85347985348,1.52161172161172,35.0869062150596
1743376444055,19:14:04.055,63,-1,1282.05128205128,1.53333333333333,35.0869062150596
1743376444075,19:14:04.075,63,-1,1277.65567765568,1.52600732600733,35.0869062150596
1743376444094,19:14:04.094,63,-1,1271.79487179487,1.51868131868132,35.0869062150596
1743376444114,19:14:04.114,63,-1,1257.14285714286,1.5010989010989,35.0869062150596
1743376444133,19:14:04.133,63,-1,1254.21245421245,1.5040293040293,35.0869062150596
1743376444153,19:14:04.153,63,-1,1273.26007326007,1.50989010989011,35.0869062150596
1743376444172,19:14:04.172,63,-1,1302.5641025641,1.52014652014652,35.0869062150596
1743376444192,19:14:04.192,63,-1,1345.78754578755,1.51282051282051,35.0869062150596
1743376444211,19:14:04.211,63,-1,1383.88278388278,1.50549450549451,35.0919076185673
1743376444231,19:14:04.231,63,-1,1409.52380952381,1.49084249084249,35.0919076185673
1743376444250,19:14:04.250,63,-1,1436.63003663004,1.49377289377289,35.0919076185673
1743376444270,19:14:04.270,63,-1,1452.74725274725,1.5025641025641,35.0919076185673
1743376444289,19:14:04.289,63,-1,1458.60805860806,1.51135531135531,35.0919076185673
1743376444309,19:14:04.309,63,-1,1454.21245421245,1.50549450549451,35.0919076185673
1743376444328,19:14:04.328,63,-1,1458.60805860806,1.49523809523809,35.0919076185673
1743376444348,19:14:04.348,63,-1,1460.80586080586,1.48205128205128,35.0919076185673
1743376444367,19:14:04.367,63,-1,1454.94505494505,1.48791208791209,35.0919076185673
1743376444387,19:14:04.387,63,-1,1446.88644688645,1.4967032967033,35.0919076185673
1743376444406,19:14:04.406,63,-1,1437.36263736264,1.50549450549451,35.0919076185673
1743376444426,19:14:04.426,63,-1,1408.05860805861,1.4981684981685,35.0919076185673
1743376444445,19:14:04.445,63,-1,1378.02197802198,1.48791208791209,35.0919076185673
1743376444465,19:14:04.465,63,-1,1380.21978021978,1.47765567765568,35.0919076185673
1743376444484,19:14:04.484,63,-1,1395.6043956044,1.48351648351648,35.0919076185673
1743376444504,19:14:04.504,63,-1,1402.9304029304,1.49523809523809,35.0919076185673
1743376444523,19:14:04.523,63,-1,1397.8021978022,1.4996336996337,35.0919076185673
1743376444543,19:14:04.543,63,-1,1397.0695970696,1.49523809523809,35.0919076185673
1743376444562,19:14:04.562,63,-1,1394.87179487179,1.48205128205128,35.0919076185673
1743376444582,19:14:04.582,63,-1,1379.48717948718,1.47619047619048,35.0919076185673
1743376444601,19:14:04.601,67,-1,1369.96336996337,1.48351648351648,35.0919076185673
1743376444621,19:14:04.621,67,-1,1369.96336996337,1.49523809523809,35.0919076185673
1743376444640,19:14:04.640,67,-1,1361.17216117216,1.4981684981685,35.0919076185673
1743376444660,19:14:04.660,67,-1,1344.32234432234,1.49230769230769,35.0919076185673
1743376444679,19:14:04.679,67,-1,1338.46153846154,1.47765567765568,35.0919076185673
1743376444699,19:14:04.699,67,-1,1331.86813186813,1.47326007326007,35.0919076185673
1743376444718,19:14:04.718,67,-1,1332.60073260073,1.48205128205128,35.0919076185673
1743376444738,19:14:04.738,67,-1,1331.13553113553,1.49377289377289,35.0919076185673
1743376444757,19:14:04.757,67,-1,1311.35531135531,1.49523809523809,35.0919076185673
1743376444777,19:14:04.777,67,-1,1292.30769230769,1.48937728937729,35.0919076185673
1743376444796,19:14:04.796,67,-1,1281.31868131868,1.47472527472527,35.0919076185673
1743376444816,19:14:04.816,67,-1,1287.17948717949,1.47326007326007,35.0919076185673
1743376444835,19:14:04.835,67,-1,1287.17948717949,1.47326007326007,35.0919076185673
1743376444855,19:14:04.855,67,-1,1307.69230769231,1.49377289377289,35.0919076185673
1743376444874,19:14:04.874,67,-1,1318.68131868132,1.49084249084249,35.0919076185673
1743376444894,19:14:04.894,67,-1,1320.87912087912,1.48644688644689,35.0919076185673
1743376444913,19:14:04.913,67,-1,1306.95970695971,1.47032967032967,35.0919076185673
1743376444933,19:14:04.933,67,-1,1300.3663003663,1.47032967032967,35.0919076185673
1743376444952,19:14:04.952,67,-1,1290.10989010989,1.47912087912088,35.0919076185673
1743376444972,19:14:04.972,67,-1,1288.64468864469,1.49230769230769,35.0919076185673
1743376444991,19:14:04.991,67,-1,1282.05128205128,1.48937728937729,35.0919076185673
1743376445011,19:14:05.011,67,-1,1294.50549450549,1.48498168498168,35.0919076185673
1743376445030,19:14:05.030,67,-1,1329.67032967033,1.46886446886447,35.0919076185673
1743376445050,19:14:05.050,67,-1,1362.63736263736,1.47179487179487,35.0919076185673
1743376445069,19:14:05.069,67,-1,1417.58241758242,1.48058608058608,35.0919076185673
1743376445089,19:14:05.089,67,-1,1457.14285714286,1.49377289377289,35.0919076185673
1743376445108,19:14:05.108,67,-1,1473.99267399267,1.49084249084249,35.0919076185673
1743376445128,19:14:05.128,67,-1,1474.72527472527,1.48644688644689,35.0919076185673
1743376445147,19:14:05.147,67,-1,1474.72527472527,1.47179487179487,35.0919076185673
1743376445167,19:14:05.167,67,-1,1475.45787545788,1.47472527472527,35.0919076185673
1743376445186,19:14:05.186,67,-1,1487.17948717949,1.48498168498168,35.0919076185673
1743376445206,19:14:05.206,67,-1,1498.9010989011,1.4981684981685,35.0969090162544
1743376445225,19:14:05.225,67,-1,1501.8315018315,1.49377289377289,35.0969090162544
1743376445245,19:14:05.245,67,-1,1501.8315018315,1.48791208791209,35.0969090162544
1743376445264,19:14:05.264,67,-1,1494.50549450549,1.47326007326007,35.0969090162544
1743376445284,19:14:05.284,67,-1,1474.72527472527,1.47765567765568,35.0969090162544
1743376445303,19:14:05.303,67,-1,1456.41025641026,1.48791208791209,35.0969090162544
1743376445323,19:14:05.323,67,-1,1449.08424908425,1.4996336996337,35.0969090162544
1743376445342,19:14:05.342,67,-1,1440.29304029304,1.49377289377289,35.0969090162544
1743376445362,19:14:05.362,67,-1,1422.71062271062,1.48644688644689,35.0969090162544
1743376445381,19:14:05.381,67,-1,1422.71062271062,1.47472527472527,35.0969090162544
1743376445401,19:14:05.401,67,-1,1420.51282051282,1.48205128205128,35.0969090162544
1743376445420,19:14:05.420,67,-1,1416.84981684982,1.49230769230769,35.0969090162544
1743376445440,19:14:05.440,67,-1,1415.38461538462,1.5040293040293,35.0969090162544
1743376445459,19:14:05.459,73,-1,1413.91941391941,1.4996336996337,35.0969090162544
1743376445479,19:14:05.479,73,-1,1403.663003663,1.49230769230769,35.0969090162544
1743376445498,19:14:05.498,73,-1,1390.47619047619,1.48351648351648,35.0969090162544
1743376445518,19:14:05.518,73,-1,1372.16117216117,1.49230769230769,35.0969090162544
1743376445537,19:14:05.537,73,-1,1355.31135531136,1.50549450549451,35.0969090162544
1743376445557,19:14:05.557,73,-1,1350.91575091575,1.51428571428571,35.0969090162544
1743376445576,19:14:05.576,73,-1,1350.91575091575,1.50989010989011,35.0969090162544
1743376445596,19:14:05.596,73,-1,1354.57875457875,1.5010989010989,35.0969090162544
1743376445615,19:14:05.615,73,-1,1356.77655677656,1.49377289377289,35.0969090162544
1743376445635,19:14:05.635,73,-1,1343.58974358974,1.5040293040293,35.0969090162544
1743376445654,19:14:05.654,73,-1,1336.99633699634,1.51575091575092,35.0969090162544
1743376445674,19:14:05.674,73,-1,1325.27472527473,1.52307692307692,35.0969090162544
1743376445693,19:14:05.693,73,-1,1314.28571428571,1.52014652014652,35.0969090162544
1743376445713,19:14:05.713,73,-1,1310.62271062271,1.50842490842491,35.0969090162544
1743376445732,19:14:05.732,73,-1,1293.04029304029,1.50549450549451,35.0969090162544
1743376445752,19:14:05.752,73,-1,1284.98168498168,1.51721611721612,35.0969090162544
1743376445771,19:14:05.771,73,-1,1288.64468864469,1.53040293040293,35.0969090162544
1743376445791,19:14:05.791,73,-1,1299.6336996337,1.53626373626374,35.0969090162544
1743376445810,19:14:05.810,73,-1,1313.55311355311,1.53186813186813,35.0969090162544
1743376445830,19:14:05.830,73,-1,1313.55311355311,1.52014652014652,35.0969090162544
1743376445849,19:14:05.849,73,-1,1323.07692307692,1.52014652014652,35.0969090162544
1743376445869,19:14:05.869,73,-1,1326.73992673993,1.53040293040293,35.0969090162544
1743376445888,19:14:05.888,73,-1,1323.80952380952,1.54652014652015,35.0969090162544
1743376445908,19:14:05.908,73,-1,1327.47252747253,1.54798534798535,35.0969090162544
1743376445927,19:14:05.927,73,-1,1353.11355311355,1.54652014652015,35.0969090162544
1743376445947,19:14:05.947,73,-1,1392.67399267399,1.53186813186813,35.0969090162544
1743376445966,19:14:05.966,73,-1,1427.10622710623,1.53479853479853,35.0969090162544
1743376445986,19:14:05.986,73,-1,1460.07326007326,1.54505494505494,35.0969090162544
1743376446005,19:14:06.005,73,-1,1503.2967032967,1.56117216117216,35.0969090162544
1743376446025,19:14:06.025,73,-1,1539.19413919414,1.56263736263736,35.0969090162544
1743376446044,19:14:06.044,73,-1,1547.25274725275,1.56117216117216,35.0969090162544
1743376446064,19:14:06.064,73,-1,1569.96336996337,1.54652014652015,35.0969090162544
1743376446083,19:14:06.083,73,-1,1586.81318681319,1.55091575091575,35.0969090162544
1743376446103,19:14:06.103,73,-1,1600.7326007326,1.56117216117216,35.0969090162544
1743376446122,19:14:06.122,73,-1,1603.663003663,1.57728937728938,35.0969090162544
1743376446142,19:14:06.142,73,-1,1604.3956043956,1.57728937728938,35.0969090162544
1743376446161,19:14:06.161,73,-1,1584.61538461538,1.57582417582418,35.0969090162544
1743376446181,19:14:06.181,73,-1,1574.35897435897,1.56117216117216,35.0969090162544
1743376446200,19:14:06.200,73,-1,1567.76556776557,1.56703296703297,35.0969090162544
1743376446220,19:14:06.220,73,-1,1531.13553113553,1.57875457875458,35.0969090162544
1743376446239,19:14:06.239,73,-1,1514.28571428571,1.59487179487179,35.0969090162544
1743376446259,19:14:06.259,73,-1,1511.35531135531,1.59194139194139,35.0969090162544
1743376446278,19:14:06.278,73,-1,1517.21611721612,1.58901098901099,35.0969090162544
1743376446298,19:14:06.298,73,-1,1516.48351648352,1.57582417582418,35.0969090162544
1743376446317,19:14:06.317,73,-1,1506.22710622711,1.58315018315018,35.0969090162544
1743376446337,19:14:06.337,73,-1,1491.57509157509,1.59487179487179,35.0969090162544
1743376446356,19:14:06.356,70,-1,1477.65567765568,1.60952380952381,35.0969090162544
1743376446376,19:14:06.376,70,-1,1471.79487179487,1.60512820512821,35.0969090162544
1743376446395,19:14:06.395,70,-1,1451.28205128205,1.6021978021978,35.0969090162544
1743376446415,19:14:06.415,70,-1,1438.09523809524,1.59047619047619,35.0969090162544
1743376446434,19:14:06.434,70,-1,1427.10622710623,1.596336996337,35.0969090162544
1743376446454,19:14:06.454,70,-1,1413.91941391941,1.60805860805861,35.0969090162544
1743376446473,19:14:06.473,70,-1,1400.7326007326,1.62124542124542,35.0969090162544
1743376446493,19:14:06.493,70,-1,1401.4652014652,1.61831501831502,35.0969090162544
1743376446512,19:14:06.512,70,-1,1405.12820512821,1.61245421245421,35.0969090162544
1743376446532,19:14:06.532,70,-1,1409.52380952381,1.6021978021978,35.0969090162544
1743376446551,19:14:06.551,70,-1,1402.1978021978,1.61098901098901,35.0969090162544
1743376446571,19:14:06.571,70,-1,1402.1978021978,1.62271062271062,35.0969090162544
1743376446590,19:14:06.590,70,-1,1392.67399267399,1.63443223443223,35.0969090162544
1743376446610,19:14:06.610,70,-1,1370.69597069597,1.63003663003663,35.0969090162544
1743376446629,19:14:06.629,70,-1,1361.90476190476,1.62124542124542,35.0969090162544
1743376446649,19:14:06.649,70,-1,1358.24175824176,1.61245421245421,35.0969090162544
1743376446668,19:14:06.668,70,-1,1350.18315018315,1.62124542124542,35.0969090162544
1743376446688,19:14:06.688,70,-1,1357.50915750916,1.63296703296703,35.0969090162544
1743376446707,19:14:06.707,70,-1,1369.96336996337,1.64029304029304,35.0969090162544
1743376446727,19:14:06.727,70,-1,1373.62637362637,1.63589743589744,35.0969090162544
1743376446746,19:14:06.746,70,-1,1371.42857142857,1.62564102564102,35.0969090162544
1743376446766,19:14:06.766,70,-1,1352.38095238095,1.61831501831502,35.0969090162544
1743376446785,19:14:06.785,70,-1,1331.86813186813,1.62710622710623,35.0969090162544
1743376446805,19:14:06.805,70,-1,1312.08791208791,1.64029304029304,35.0969090162544
1743376446824,19:14:06.824,70,-1,1313.55311355311,1.64615384615385,35.0969090162544
1743376446844,19:14:06.844,70,-1,1313.55311355311,1.64615384615385,35.0969090162544
1743376446863,19:14:06.863,70,-1,1361.90476190476,1.62857142857143,35.0969090162544
1743376446883,19:14:06.883,70,-1,1415.38461538462,1.62417582417582,35.0969090162544
1743376446902,19:14:06.902,70,-1,1473.26007326007,1.63296703296703,35.0969090162544
1743376446922,19:14:06.922,70,-1,1527.47252747253,1.64615384615385,35.0969090162544
1743376446941,19:14:06.941,70,-1,1551.64835164835,1.64761904761905,35.0969090162544
1743376446961,19:14:06.961,70,-1,1573.62637362637,1.64468864468864,35.0969090162544
1743376446980,19:14:06.980,70,-1,1600.7326007326,1.63003663003663,35.0969090162544
1743376447000,19:14:07.000,70,-1,1633.69963369963,1.62857142857143,35.0969090162544
1743376447019,19:14:07.019,70,-1,1645.42124542125,1.63589743589744,35.0969090162544
1743376447039,19:14:07.039,70,-1,1642.49084249084,1.64908424908425,35.0969090162544
1743376447058,19:14:07.058,70,-1,1648.35164835165,1.64908424908425,35.0969090162544
1743376447078,19:14:07.078,70,-1,1645.42124542125,1.64468864468864,35.0969090162544
1743376447097,19:14:07.097,70,-1,1646.88644688645,1.62857142857143,35.0969090162544
1743376447117,19:14:07.117,70,-1,1643.22344322344,1.62857142857143,35.0969090162544
1743376447136,19:14:07.136,70,-1,1602.1978021978,1.63736263736264,35.0969090162544
1743376447156,19:14:07.156,70,-1,1547.25274725275,1.65347985347985,35.0969090162544
1743376447175,19:14:07.175,70,-1,1515.01831501831,1.65054945054945,35.0969090162544
1743376447195,19:14:07.195,70,-1,1496.7032967033,1.64761904761905,35.0969090162544
1743376447214,19:14:07.214,70,-1,1490.84249084249,1.63296703296703,35.0969090162544
1743376447234,19:14:07.234,70,-1,1508.42490842491,1.63736263736264,35.0969090162544
1743376447253,19:14:07.253,70,-1,1528.93772893773,1.64761904761905,35.0969090162544
1743376447273,19:14:07.273,70,-1,1524.54212454212,1.66227106227106,35.0969090162544
1743376447292,19:14:07.292,67,-1,1512.82051282051,1.66080586080586,35.0969090162544
1743376447312,19:14:07.312,67,-1,1495.2380952381,1.65934065934066,35.0969090162544
1743376447331,19:14:07.331,67,-1,1476.92307692308,1.64615384615385,35.0969090162544
1743376447351,19:14:07.351,67,-1,1468.13186813187,1.65054945054945,35.0969090162544
1743376447370,19:14:07.370,67,-1,1460.80586080586,1.66080586080586,35.0969090162544
1743376447390,19:14:07.390,67,-1,1451.28205128205,1.67545787545788,35.0969090162544
1743376447409,19:14:07.409,67,-1,1442.49084249084,1.67106227106227,35.0969090162544
1743376447429,19:14:07.429,67,-1,1443.22344322344,1.66813186813187,35.0969090162544
1743376447448,19:14:07.448,67,-1,1438.82783882784,1.65347985347985,35.0969090162544
1743376447468,19:14:07.468,67,-1,1434.43223443223,1.65934065934066,35.0969090162544
1743376447487,19:14:07.487,67,-1,1438.09523809524,1.66959706959707,35.0969090162544
1743376447507,19:14:07.507,67,-1,1445.42124542125,1.68278388278388,35.0969090162544
1743376447526,19:14:07.526,67,-1,1432.96703296703,1.67838827838828,35.0969090162544
1743376447546,19:14:07.546,67,-1,1398.5347985348,1.67252747252747,35.0969090162544
1743376447565,19:14:07.565,67,-1,1372.16117216117,1.66227106227106,35.0969090162544
1743376447585,19:14:07.585,67,-1,1356.77655677656,1.66813186813187,35.0969090162544
1743376447604,19:14:07.604,67,-1,1347.98534798535,1.67985347985348,35.0969090162544
1743376447624,19:14:07.624,67,-1,1336.99633699634,1.69157509157509,35.0969090162544
1743376447643,19:14:07.643,67,-1,1341.39194139194,1.68717948717949,35.0969090162544
1743376447663,19:14:07.663,67,-1,1361.17216117216,1.67985347985348,35.0969090162544
1743376447682,19:14:07.682,67,-1,1364.10256410256,1.66959706959707,35.0969090162544
1743376447702,19:14:07.702,67,-1,1345.05494505494,1.67692307692308,35.0969090162544
1743376447721,19:14:07.721,67,-1,1328.93772893773,1.68864468864469,35.0969090162544
1743376447741,19:14:07.741,67,-1,1322.34432234432,1.6989010989011,35.0969090162544
1743376447760,19:14:07.760,67,-1,1314.28571428571,1.69304029304029,35.0969090162544
1743376447780,19:14:07.780,67,-1,1304.0293040293,1.68424908424908,35.0969090162544
1743376447799,19:14:07.799,67,-1,1309.15750915751,1.67692307692308,35.0969090162544
1743376447819,19:14:07.819,67,-1,1338.46153846154,1.68717948717949,35.0969090162544
1743376447838,19:14:07.838,67,-1,1375.82417582418,1.7003663003663,35.0969090162544
1743376447858,19:14:07.858,67,-1,1417.58241758242,1.70622710622711,35.0969090162544
1743376447877,19:14:07.877,67,-1,1466.66666666667,1.7032967032967,35.0969090162544
1743376447897,19:14:07.897,67,-1,1511.35531135531,1.69304029304029,35.0969090162544
1743376447916,19:14:07.916,67,-1,1549.45054945055,1.68864468864469,35.0969090162544
1743376447936,19:14:07.936,67,-1,1564.10256410256,1.6974358974359,35.0969090162544
1743376447955,19:14:07.955,67,-1,1579.48717948718,1.70915750915751,35.0969090162544
1743376447975,19:14:07.975,67,-1,1592.67399267399,1.71208791208791,35.0969090162544
1743376447994,19:14:07.994,67,-1,1598.5347985348,1.70769230769231,35.0969090162544
1743376448014,19:14:08.014,67,-1,1591.94139194139,1.6959706959707,35.0969090162544
1743376448033,19:14:08.033,67,-1,1608.79120879121,1.69304029304029,35.0969090162544
1743376448053,19:14:08.053,67,-1,1623.44322344322,1.7018315018315,35.0969090162544
1743376448072,19:14:08.072,67,-1,1608.79120879121,1.71501831501831,35.0969090162544
1743376448092,19:14:08.092,67,-1,1580.21978021978,1.71501831501831,35.0969090162544
1743376448111,19:14:08.111,67,-1,1549.45054945055,1.71062271062271,35.0969090162544
1743376448131,19:14:08.131,67,-1,1534.06593406593,1.6959706959707,35.0969090162544
