RawTimestamp,LocalTime,HR_Direct,HR_Buffered,PPG,GSR,Temperature
1743443134986,13:45:34.986,-1,-1,0,7.00182512029202,26.4608428180218
1743443135006,13:45:35.006,-1,-1,0,7.00182512029202,26.4608428180218
1743443135025,13:45:35.025,-1,-1,0,2.27798735261422,26.4608428180218
1743443135045,13:45:35.045,-1,-1,0,2.27798735261422,26.4608428180218
1743443135064,13:45:35.064,-1,-1,0,2.27798735261422,26.4608428180218
1743443135084,13:45:35.084,-1,-1,0,2.27798735261422,26.4608428180218
1743443135103,13:45:35.103,-1,-1,0,2.27798735261422,26.4608428180218
1743443135123,13:45:35.123,-1,-1,0,2.25395974524894,26.4608428180218
1743443135142,13:45:35.142,-1,-1,0,2.25395974524894,26.4608428180218
1743443135162,13:45:35.162,-1,-1,0,2.25395974524894,26.4608428180218
1743443135181,13:45:35.181,-1,-1,0,2.25395974524894,26.4608428180218
1743443135201,13:45:35.201,-1,-1,0,2.25395974524894,26.4608428180218
1743443135220,13:45:35.220,-1,-1,0,2.27179487179487,26.4608428180218
1743443135240,13:45:35.240,-1,-1,0,2.27326007326007,26.4608428180218
1743443135259,13:45:35.259,-1,-1,0,2.27326007326007,26.4608428180218
1743443135279,13:45:35.279,-1,-1,0,2.27326007326007,26.4608428180218
1743443135298,13:45:35.298,-1,-1,0,2.27032967032967,26.4608428180218
1743443135318,13:45:35.318,-1,-1,0,2.27032967032967,26.4608428180218
1743443135337,13:45:35.337,-1,-1,0,2.26886446886447,26.4608428180218
1743443135357,13:45:35.357,-1,-1,0,2.26739926739927,26.4608428180218
1743443135376,13:45:35.376,-1,-1,0,2.26593406593407,26.4608428180218
1743443135396,13:45:35.396,-1,-1,0,2.26446886446886,26.4608428180218
1743443135415,13:45:35.415,-1,-1,0,2.26300366300366,26.4608428180218
1743443135435,13:45:35.435,-1,-1,0,2.26153846153846,26.4608428180218
1743443135454,13:45:35.454,-1,-1,0,2.26007326007326,26.4608428180218
1743443135474,13:45:35.474,-1,-1,0,2.25860805860806,26.4608428180218
1743443135493,13:45:35.493,-1,-1,0,2.25714285714286,26.4608428180218
1743443135513,13:45:35.513,-1,-1,0,2.25567765567766,26.4608428180218
1743443135532,13:45:35.532,-1,-1,0,2.25567765567766,26.4608428180218
1743443135552,13:45:35.552,-1,-1,0,2.25421245421245,26.4608428180218
1743443135571,13:45:35.571,-1,-1,0,2.25274725274725,26.4608428180218
1743443135591,13:45:35.591,-1,-1,0,2.25128205128205,26.4608428180218
1743443135610,13:45:35.610,-1,-1,0,2.24835164835165,26.4608428180218
1743443135630,13:45:35.630,-1,-1,0,2.24835164835165,26.4608428180218
1743443135649,13:45:35.649,-1,-1,0,2.24688644688645,26.4608428180218
1743443135669,13:45:35.669,-1,-1,0,2.24542124542124,26.4608428180218
1743443135688,13:45:35.688,-1,-1,0,2.24542124542124,26.4608428180218
1743443135708,13:45:35.708,-1,-1,0,2.24395604395604,26.4608428180218
1743443135727,13:45:35.727,-1,-1,0,2.24395604395604,26.4608428180218
1743443135747,13:45:35.747,-1,-1,0,2.24249084249084,26.4608428180218
1743443135766,13:45:35.766,-1,-1,0,2.24102564102564,26.4608428180218
1743443135786,13:45:35.786,-1,-1,0,2.23956043956044,26.4608428180218
1743443135805,13:45:35.805,-1,-1,0,2.23956043956044,26.4608428180218
1743443135825,13:45:35.825,-1,-1,0,2.23809523809524,26.4608428180218
1743443135844,13:45:35.844,-1,-1,0,2.23516483516484,26.4608428180218
1743443135864,13:45:35.864,-1,-1,0,2.23223443223443,26.4608428180218
1743443135883,13:45:35.883,-1,-1,0,2.22930402930403,26.4608428180218
1743443135903,13:45:35.903,-1,-1,0,2.22490842490842,35.3119636103511
1743443135922,13:45:35.922,-1,-1,0,2.21611721611722,35.3119636103511
1743443135942,13:45:35.942,-1,-1,0,2.20586080586081,35.3119636103511
1743443135961,13:45:35.961,-1,-1,0,2.19267399267399,35.3119636103511
1743443135981,13:45:35.981,-1,-1,0,2.18827838827839,35.3119636103511
1743443136000,13:45:36.000,-1,-1,0,2.18534798534799,35.3119636103511
1743443136020,13:45:36.020,-1,-1,0,2.21318681318681,35.3119636103511
1743443136039,13:45:36.039,-1,-1,0,2.24395604395604,35.3119636103511
1743443136059,13:45:36.059,-1,-1,0,2.26446886446886,35.3119636103511
1743443136078,13:45:36.078,-1,-1,0,2.28205128205128,35.3119636103511
1743443136098,13:45:36.098,-1,-1,0,2.29084249084249,35.3119636103511
1743443136117,13:45:36.117,-1,-1,0,2.2967032967033,35.3119636103511
1743443136137,13:45:36.137,-1,-1,0,2.28791208791209,35.3119636103511
1743443136156,13:45:36.156,-1,-1,0,2.28205128205128,35.3119636103511
1743443136176,13:45:36.176,-1,-1,0,2.28058608058608,35.3119636103511
1743443136195,13:45:36.195,-1,-1,0,2.27912087912088,35.3119636103511
1743443136215,13:45:36.215,-1,-1,0,2.28644688644689,35.3119636103511
1743443136234,13:45:36.234,-1,-1,0,2.29084249084249,35.3119636103511
1743443136254,13:45:36.254,-1,-1,0,2.29084249084249,35.3119636103511
1743443136273,13:45:36.273,-1,-1,0,2.29084249084249,35.3119636103511
1743443136293,13:45:36.293,-1,-1,0,2.28791208791209,35.3119636103511
1743443136312,13:45:36.312,-1,-1,0,2.28791208791209,35.3119636103511
1743443136332,13:45:36.332,-1,-1,0,2.28791208791209,35.3119636103511
1743443136351,13:45:36.351,-1,-1,0,2.28498168498168,35.3119636103511
1743443136371,13:45:36.371,-1,-1,0,2.28351648351648,35.3119636103511
1743443136390,13:45:36.390,-1,-1,0,2.28351648351648,35.3119636103511
1743443136410,13:45:36.410,-1,-1,0,2.28205128205128,35.3119636103511
1743443136429,13:45:36.429,-1,-1,0,2.27912087912088,35.3119636103511
1743443136449,13:45:36.449,-1,-1,0,2.27912087912088,35.3119636103511
1743443136468,13:45:36.468,-1,-1,0,2.27619047619048,35.3119636103511
1743443136488,13:45:36.488,-1,-1,0,2.27472527472527,35.3119636103511
1743443136507,13:45:36.507,-1,-1,0,2.27326007326007,35.3119636103511
1743443136527,13:45:36.527,-1,-1,0,2.27032967032967,35.3119636103511
1743443136546,13:45:36.546,-1,-1,309.157509157509,2.27032967032967,35.3119636103511
1743443136566,13:45:36.566,-1,-1,780.952380952381,2.26886446886447,35.3119636103511
1743443136585,13:45:36.585,-1,-1,1112.82051282051,2.26739926739927,35.3119636103511
1743443136605,13:45:36.605,-1,-1,1306.22710622711,2.26739926739927,35.3119636103511
1743443136624,13:45:36.624,-1,-1,1405.12820512821,2.26739926739927,35.3119636103511
1743443136644,13:45:36.644,-1,-1,1452.74725274725,2.26739926739927,35.3119636103511
1743443136663,13:45:36.663,-1,-1,1455.67765567766,2.26739926739927,35.3119636103511
1743443136683,13:45:36.683,-1,-1,1429.30402930403,2.26739926739927,35.3119636103511
1743443136702,13:45:36.702,-1,-1,1393.40659340659,2.26739926739927,35.3119636103511
1743443136722,13:45:36.722,-1,-1,1360.43956043956,2.26593406593407,35.3119636103511
1743443136741,13:45:36.741,-1,-1,1334.79853479853,2.26593406593407,35.3119636103511
1743443136761,13:45:36.761,-1,-1,1311.35531135531,2.26446886446886,35.3119636103511
1743443136780,13:45:36.780,-1,-1,1297.4358974359,2.26446886446886,35.3119636103511
1743443136800,13:45:36.800,-1,-1,1283.51648351648,2.26446886446886,35.3119636103511
1743443136819,13:45:36.819,-1,-1,1273.99267399267,2.26446886446886,35.3119636103511
1743443136839,13:45:36.839,-1,-1,1265.93406593407,2.26446886446886,35.3119636103511
1743443136858,13:45:36.858,-1,-1,1255.67765567766,2.26300366300366,35.3119636103511
1743443136878,13:45:36.878,-1,-1,1244.68864468864,2.26153846153846,35.3119636103511
1743443136897,13:45:36.897,-1,-1,1238.82783882784,2.26007326007326,35.3469714791281
1743443136917,13:45:36.917,-1,-1,1232.96703296703,2.26007326007326,35.3469714791281
1743443136936,13:45:36.936,-1,-1,1254.21245421245,2.25860805860806,35.3469714791281
1743443136956,13:45:36.956,-1,-1,1321.61172161172,2.25860805860806,35.3469714791281
1743443136975,13:45:36.975,-1,-1,1419.04761904762,2.25860805860806,35.3469714791281
1743443136995,13:45:36.995,-1,-1,1512.08791208791,2.25860805860806,35.3469714791281
1743443137014,13:45:37.014,-1,-1,1575.82417582418,2.25421245421245,35.3469714791281
1743443137034,13:45:37.034,-1,-1,1608.05860805861,2.25274725274725,35.3469714791281
1743443137053,13:45:37.053,-1,-1,1621.24542124542,2.25274725274725,35.3469714791281
1743443137073,13:45:37.073,-1,-1,1613.18681318681,2.25274725274725,35.3469714791281
1743443137092,13:45:37.092,-1,-1,1570.69597069597,2.25421245421245,35.3469714791281
1743443137112,13:45:37.112,-1,-1,1522.34432234432,2.25567765567766,35.3469714791281
1743443137131,13:45:37.131,-1,-1,1483.51648351648,2.25714285714286,35.3469714791281
1743443137151,13:45:37.151,-1,-1,1439.56043956044,2.25860805860806,35.3469714791281
1743443137170,13:45:37.170,-1,-1,1402.9304029304,2.26153846153846,35.3469714791281
1743443137190,13:45:37.190,-1,-1,1395.6043956044,2.26300366300366,35.3469714791281
1743443137209,13:45:37.209,-1,-1,1389.01098901099,2.26593406593407,35.3469714791281
1743443137229,13:45:37.229,-1,-1,1369.96336996337,2.26739926739927,35.3469714791281
1743443137248,13:45:37.248,-1,-1,1349.45054945055,2.26886446886447,35.3469714791281
1743443137268,13:45:37.268,-1,-1,1347.98534798535,2.27032967032967,35.3469714791281
1743443137287,13:45:37.287,-1,-1,1342.85714285714,2.27179487179487,35.3469714791281
1743443137307,13:45:37.307,-1,-1,1335.53113553114,2.27912087912088,35.3469714791281
1743443137326,13:45:37.326,-1,-1,1326.00732600733,2.28644688644689,35.3469714791281
1743443137346,13:45:37.346,-1,-1,1299.6336996337,2.28937728937729,35.3469714791281
1743443137365,13:45:37.365,-1,-1,1279.12087912088,2.29230769230769,35.3469714791281
1743443137385,13:45:37.385,-1,-1,1279.85347985348,2.2967032967033,35.3469714791281
1743443137404,13:45:37.404,-1,-1,1281.31868131868,2.3010989010989,35.3469714791281
1743443137424,13:45:37.424,-1,-1,1279.12087912088,2.30549450549451,35.3469714791281
1743443137443,13:45:37.443,-1,-1,1261.53846153846,2.30989010989011,35.3469714791281
1743443137463,13:45:37.463,-1,-1,1237.36263736264,2.31428571428571,35.3469714791281
1743443137482,13:45:37.482,-1,-1,1231.50183150183,2.31868131868132,35.3469714791281
1743443137502,13:45:37.502,-1,-1,1273.26007326007,2.32454212454212,35.3469714791281
1743443137521,13:45:37.521,-1,-1,1358.24175824176,2.33040293040293,35.3469714791281
1743443137541,13:45:37.541,-1,-1,1447.61904761905,2.33772893772894,35.3469714791281
1743443137560,13:45:37.560,-1,-1,1525.27472527473,2.34652014652015,35.3469714791281
1743443137580,13:45:37.580,-1,-1,1588.27838827839,2.35384615384615,35.3469714791281
1743443137599,13:45:37.599,-1,-1,1619.78021978022,2.36117216117216,35.3469714791281
1743443137619,13:45:37.619,-1,-1,1617.58241758242,2.36703296703297,35.3469714791281
1743443137638,13:45:37.638,-1,-1,1616.84981684982,2.37435897435897,35.3469714791281
1743443137658,13:45:37.658,-1,-1,1594.13919413919,2.38315018315018,35.3469714791281
1743443137677,13:45:37.677,-1,-1,1558.97435897436,2.39047619047619,35.3469714791281
1743443137697,13:45:37.697,-1,-1,1520.87912087912,2.3978021978022,35.3469714791281
1743443137716,13:45:37.716,-1,-1,1476.92307692308,2.40659340659341,35.3469714791281
1743443137736,13:45:37.736,-1,-1,1439.56043956044,2.41538461538462,35.3469714791281
1743443137755,13:45:37.755,-1,-1,1412.45421245421,2.42124542124542,35.3469714791281
1743443137775,13:45:37.775,-1,-1,1391.20879120879,2.43003663003663,35.3469714791281
1743443137794,13:45:37.794,-1,-1,1370.69597069597,2.43736263736264,35.3469714791281
1743443137814,13:45:37.814,-1,-1,1361.90476190476,2.44615384615385,35.3469714791281
1743443137833,13:45:37.833,-1,-1,1351.64835164835,2.45201465201465,35.3469714791281
1743443137853,13:45:37.853,-1,-1,1347.25274725275,2.46080586080586,35.3469714791281
1743443137872,13:45:37.872,-1,-1,1344.32234432234,2.46813186813187,35.3469714791281
1743443137892,13:45:37.892,-1,-1,1330.40293040293,2.47692307692308,35.3669758475153
1743443137911,13:45:37.911,-1,-1,1316.48351648352,2.48424908424908,35.3669758475153
1743443137931,13:45:37.931,-1,-1,1310.62271062271,2.49304029304029,35.3669758475153
1743443137950,13:45:37.950,-1,-1,1310.62271062271,2.5018315018315,35.3669758475153
1743443137970,13:45:37.970,-1,-1,1295.2380952381,2.50915750915751,35.3669758475153
1743443137989,13:45:37.989,-1,-1,1273.99267399267,2.51794871794872,35.3669758475153
1743443138009,13:45:38.009,-1,-1,1241.02564102564,2.52527472527472,35.3669758475153
1743443138028,13:45:38.028,-1,-1,1217.58241758242,2.53406593406593,35.3669758475153
1743443138048,13:45:38.048,-1,-1,1228.57142857143,2.54285714285714,35.3669758475153
1743443138067,13:45:38.067,-1,-1,1270.32967032967,2.55018315018315,35.3669758475153
1743443138087,13:45:38.087,-1,-1,1342.12454212454,2.56043956043956,35.3669758475153
1743443138106,13:45:38.106,-1,-1,1447.61904761905,2.56630036630037,35.3669758475153
1743443138126,13:45:38.126,-1,-1,1549.45054945055,2.57655677655678,35.3669758475153
1743443138145,13:45:38.145,-1,-1,1614.65201465201,2.58388278388278,35.3669758475153
1743443138165,13:45:38.165,-1,-1,1652.01465201465,2.59267399267399,35.3669758475153
1743443138184,13:45:38.184,-1,-1,1668.86446886447,2.6,35.3669758475153
1743443138204,13:45:38.204,-1,-1,1654.21245421245,2.60586080586081,35.3669758475153
1743443138223,13:45:38.223,-1,-1,1622.71062271062,2.61318681318681,35.3669758475153
1743443138243,13:45:38.243,-1,-1,1569.23076923077,2.62051282051282,35.3669758475153
1743443138262,13:45:38.262,-1,-1,1525.27472527473,2.62637362637363,35.3669758475153
1743443138282,13:45:38.282,-1,-1,1470.32967032967,2.63223443223443,35.3669758475153
1743443138301,13:45:38.301,-1,-1,1424.90842490842,2.63663003663004,35.3669758475153
1743443138321,13:45:38.321,-1,-1,1403.663003663,2.64249084249084,35.3669758475153
1743443138340,13:45:38.340,-1,-1,1376.55677655678,2.64688644688645,35.3669758475153
1743443138360,13:45:38.360,-1,-1,1353.84615384615,2.65128205128205,35.3669758475153
1743443138379,13:45:38.379,-1,-1,1344.32234432234,2.65567765567766,35.3669758475153
1743443138399,13:45:38.399,-1,-1,1325.27472527473,2.66007326007326,35.3669758475153
1743443138418,13:45:38.418,-1,-1,1313.55311355311,2.66446886446886,35.3669758475153
1743443138438,13:45:38.438,-1,-1,1303.2967032967,2.66739926739927,35.3669758475153
1743443138457,13:45:38.457,-1,-1,1300.3663003663,2.67179487179487,35.3669758475153
1743443138477,13:45:38.477,-1,-1,1296.7032967033,2.67619047619048,35.3669758475153
1743443138496,13:45:38.496,-1,-1,1290.84249084249,2.68058608058608,35.3669758475153
1743443138516,13:45:38.516,-1,-1,1282.05128205128,2.68351648351648,35.3669758475153
1743443138535,13:45:38.535,-1,-1,1272.52747252747,2.68937728937729,35.3669758475153
1743443138555,13:45:38.555,-1,-1,1263.00366300366,2.69377289377289,35.3669758475153
1743443138574,13:45:38.574,-1,-1,1253.47985347985,2.6981684981685,35.3669758475153
1743443138594,13:45:38.594,-1,-1,1247.61904761905,2.7010989010989,35.3669758475153
1743443138613,13:45:38.613,-1,-1,1236.63003663004,2.70549450549451,35.3669758475153
1743443138633,13:45:38.633,-1,-1,1245.42124542125,2.70842490842491,35.3669758475153
1743443138652,13:45:38.652,-1,-1,1295.2380952381,2.71135531135531,35.3669758475153
1743443138672,13:45:38.672,-1,-1,1372.16117216117,2.71282051282051,35.3669758475153
1743443138691,13:45:38.691,-1,-1,1457.14285714286,2.71721611721612,35.3669758475153
1743443138711,13:45:38.711,-1,-1,1531.86813186813,2.71868131868132,35.3669758475153
1743443138730,13:45:38.730,-1,-1,1588.27838827839,2.72161172161172,35.3669758475153
1743443138750,13:45:38.750,-1,-1,1610.98901098901,2.72454212454212,35.3669758475153
1743443138769,13:45:38.769,-1,-1,1605.86080586081,2.72747252747253,35.3669758475153
1743443138789,13:45:38.789,-1,-1,1595.6043956044,2.73040293040293,35.3669758475153
1743443138808,13:45:38.808,-1,-1,1586.08058608059,2.73333333333333,35.3669758475153
1743443138828,13:45:38.828,-1,-1,1577.28937728938,2.73626373626374,35.3669758475153
1743443138847,13:45:38.847,-1,-1,1536.26373626374,2.75238095238095,35.3669758475153
1743443138867,13:45:38.867,-1,-1,1490.10989010989,2.75677655677656,35.3669758475153
1743443138886,13:45:38.886,-1,-1,1448.35164835165,2.75970695970696,35.3869801227702
1743443138906,13:45:38.906,-1,-1,1420.51282051282,2.76263736263736,35.3869801227702
1743443138925,13:45:38.925,-1,-1,1384.61538461538,2.76556776556777,35.3869801227702
1743443138945,13:45:38.945,-1,-1,1346.52014652015,2.76996336996337,35.3869801227702
1743443138964,13:45:38.964,-1,-1,1329.67032967033,2.77435897435897,35.3869801227702
1743443138984,13:45:38.984,-1,-1,1311.35531135531,2.77875457875458,35.3869801227702
1743443139003,13:45:39.003,-1,-1,1299.6336996337,2.78315018315018,35.3869801227702
1743443139023,13:45:39.023,-1,-1,1290.10989010989,2.78901098901099,35.3869801227702
1743443139042,13:45:39.042,-1,-1,1283.51648351648,2.79340659340659,35.3869801227702
1743443139062,13:45:39.062,-1,-1,1274.72527472527,2.7992673992674,35.3869801227702
1743443139081,13:45:39.081,-1,-1,1271.06227106227,2.80659340659341,35.3869801227702
1743443139101,13:45:39.101,-1,-1,1263.73626373626,2.81098901098901,35.3869801227702
1743443139120,13:45:39.120,-1,-1,1251.28205128205,2.81684981684982,35.3869801227702
1743443139140,13:45:39.140,-1,-1,1241.75824175824,2.82417582417582,35.3869801227702
1743443139159,13:45:39.159,-1,-1,1228.57142857143,2.82857142857143,35.3869801227702
1743443139179,13:45:39.179,-1,-1,1223.44322344322,2.83736263736264,35.3869801227702
1743443139198,13:45:39.198,-1,-1,1213.91941391941,2.84322344322344,35.3869801227702
1743443139218,13:45:39.218,-1,-1,1221.97802197802,2.84908424908425,35.3869801227702
1743443139237,13:45:39.237,-1,-1,1255.67765567766,2.85641025641026,35.3869801227702
1743443139257,13:45:39.257,-1,-1,1334.79853479853,2.86373626373626,35.3869801227702
1743443139276,13:45:39.276,-1,-1,1423.44322344322,2.87252747252747,35.3869801227702
1743443139296,13:45:39.296,-1,-1,1498.9010989011,2.87838827838828,35.3869801227702
1743443139315,13:45:39.315,-1,-1,1556.77655677656,2.88571428571429,35.3869801227702
1743443139335,13:45:39.335,-1,-1,1580.21978021978,2.89157509157509,35.3869801227702
1743443139354,13:45:39.354,-1,-1,1579.48717948718,2.8974358974359,35.3869801227702
1743443139374,13:45:39.374,-1,-1,1567.03296703297,2.9032967032967,35.3869801227702
1743443139393,13:45:39.393,-1,-1,1536.26373626374,2.91062271062271,35.3869801227702
1743443139413,13:45:39.413,-1,-1,1510.62271062271,2.91648351648352,35.3869801227702
1743443139432,13:45:39.432,-1,-1,1481.31868131868,2.92380952380952,35.3869801227702
1743443139452,13:45:39.452,-1,-1,1438.82783882784,2.93113553113553,35.3869801227702
1743443139471,13:45:39.471,-1,-1,1394.13919413919,2.93699633699634,35.3869801227702
1743443139491,13:45:39.491,-1,-1,1356.04395604396,2.94578754578755,35.3869801227702
1743443139510,13:45:39.510,-1,-1,1338.46153846154,2.95311355311355,35.3869801227702
1743443139530,13:45:39.530,-1,-1,1333.33333333333,2.95897435897436,35.3869801227702
1743443139549,13:45:39.549,-1,-1,1330.40293040293,2.96630036630037,35.3869801227702
1743443139569,13:45:39.569,-1,-1,1315.75091575092,2.97362637362637,35.3869801227702
1743443139588,13:45:39.588,-1,-1,1295.2380952381,2.97802197802198,35.3869801227702
1743443139608,13:45:39.608,-1,-1,1277.65567765568,2.98241758241758,35.3869801227702
1743443139627,13:45:39.627,-1,-1,1272.52747252747,2.98534798534799,35.3869801227702
1743443139647,13:45:39.647,-1,-1,1268.13186813187,2.98974358974359,35.3869801227702
1743443139666,13:45:39.666,-1,-1,1249.08424908425,2.99267399267399,35.3869801227702
1743443139686,13:45:39.686,-1,-1,1227.10622710623,2.9956043956044,35.3869801227702
1743443139705,13:45:39.705,-1,-1,1219.04761904762,2.9985347985348,35.3869801227702
1743443139725,13:45:39.725,-1,-1,1221.97802197802,3.0014652014652,35.3869801227702
1743443139744,13:45:39.744,-1,-1,1232.96703296703,3.0043956043956,35.3869801227702
1743443139764,13:45:39.764,-1,-1,1232.96703296703,3.00732600732601,35.3869801227702
1743443139783,13:45:39.783,-1,-1,1222.71062271062,3.01025641025641,35.3869801227702
1743443139803,13:45:39.803,-1,-1,1214.65201465201,3.01025641025641,35.3869801227702
1743443139822,13:45:39.822,-1,-1,1230.03663003663,3.01172161172161,35.3869801227702
1743443139842,13:45:39.842,-1,-1,1273.26007326007,3.01318681318681,35.3869801227702
1743443139861,13:45:39.861,-1,-1,1323.80952380952,3.01318681318681,35.3869801227702
1743443139881,13:45:39.881,-1,-1,1380.95238095238,3.01318681318681,35.4119853358716
1743443139900,13:45:39.900,-1,-1,1430.03663003663,3.01318681318681,35.4119853358716
1743443139920,13:45:39.920,-1,-1,1471.79487179487,3.01318681318681,35.4119853358716
1743443139939,13:45:39.939,-1,-1,1500.3663003663,3.01172161172161,35.4119853358716
1743443139959,13:45:39.959,-1,-1,1518.68131868132,3.01172161172161,35.4119853358716
1743443139978,13:45:39.978,-1,-1,1523.80952380952,3.01172161172161,35.4119853358716
1743443139998,13:45:39.998,-1,-1,1505.49450549451,3.01025641025641,35.4119853358716
1743443140017,13:45:40.017,-1,-1,1477.65567765568,3.01025641025641,35.4119853358716
1743443140037,13:45:40.037,-1,-1,1431.50183150183,3.01025641025641,35.4119853358716
1743443140056,13:45:40.056,-1,-1,1386.81318681319,3.00879120879121,35.4119853358716
1743443140076,13:45:40.076,-1,-1,1356.04395604396,3.00586080586081,35.4119853358716
1743443140095,13:45:40.095,-1,-1,1329.67032967033,3.00586080586081,35.4119853358716
1743443140115,13:45:40.115,-1,-1,1302.5641025641,3.0043956043956,35.4119853358716
1743443140134,13:45:40.134,-1,-1,1294.50549450549,3.0014652014652,35.4119853358716
1743443140154,13:45:40.154,-1,-1,1298.1684981685,3,35.4119853358716
1743443140173,13:45:40.173,-1,-1,1309.15750915751,3,35.4119853358716
1743443140193,13:45:40.193,-1,-1,1320.14652014652,2.9985347985348,35.4119853358716
1743443140212,13:45:40.212,-1,-1,1315.01831501831,3.0014652014652,35.4119853358716
1743443140232,13:45:40.232,-1,-1,1306.22710622711,3.00586080586081,35.4119853358716
1743443140251,13:45:40.251,-1,-1,1290.10989010989,3.0043956043956,35.4119853358716
1743443140271,13:45:40.271,-1,-1,1269.59706959707,3.00586080586081,35.4119853358716
1743443140290,13:45:40.290,-1,-1,1251.28205128205,3.00586080586081,35.4119853358716
1743443140310,13:45:40.310,-1,-1,1238.09523809524,3.0043956043956,35.4119853358716
1743443140329,13:45:40.329,-1,-1,1230.76923076923,3.0014652014652,35.4119853358716
1743443140349,13:45:40.349,-1,-1,1233.69963369963,3,35.4119853358716
1743443140368,13:45:40.368,-1,-1,1230.76923076923,2.9985347985348,35.4119853358716
1743443140388,13:45:40.388,-1,-1,1226.37362637363,2.9956043956044,35.4119853358716
1743443140407,13:45:40.407,-1,-1,1221.97802197802,2.99267399267399,35.4119853358716
1743443140427,13:45:40.427,-1,-1,1251.28205128205,2.99120879120879,35.4119853358716
1743443140446,13:45:40.446,-1,-1,1312.82051282051,2.98827838827839,35.4119853358716
1743443140466,13:45:40.466,-1,-1,1365.56776556777,2.98534798534799,35.4119853358716
1743443140485,13:45:40.485,-1,-1,1411.72161172161,2.98241758241758,35.4119853358716
1743443140505,13:45:40.505,-1,-1,1454.94505494505,2.97948717948718,35.4119853358716
1743443140525,13:45:40.524,-1,-1,1489.37728937729,2.97655677655678,35.4119853358716
1743443140544,13:45:40.544,-1,-1,1496.7032967033,2.97362637362637,35.4119853358716
1743443140564,13:45:40.563,-1,-1,1478.38827838828,2.96923076923077,35.4119853358716
1743443140583,13:45:40.583,-1,-1,1454.21245421245,2.96630036630037,35.4119853358716
1743443140603,13:45:40.602,-1,-1,1438.82783882784,2.96336996336996,35.4119853358716
1743443140622,13:45:40.622,-1,-1,1435.16483516484,2.96336996336996,35.4119853358716
1743443140642,13:45:40.642,-1,-1,1424.17582417582,2.97069597069597,35.4119853358716
1743443140661,13:45:40.661,-1,-1,1397.0695970696,2.96776556776557,35.4119853358716
1743443140681,13:45:40.681,-1,-1,1372.89377289377,2.96483516483516,35.4119853358716
1743443140700,13:45:40.700,-1,-1,1348.71794871795,2.96043956043956,35.4119853358716
1743443140720,13:45:40.720,-1,-1,1328.93772893773,2.95604395604396,35.4119853358716
1743443140739,13:45:40.739,-1,-1,1312.08791208791,2.95164835164835,35.4119853358716
1743443140759,13:45:40.759,-1,-1,1304.7619047619,2.94725274725275,35.4119853358716
1743443140778,13:45:40.778,-1,-1,1296.7032967033,2.94285714285714,35.4119853358716
1743443140798,13:45:40.798,-1,-1,1293.04029304029,2.93846153846154,35.4119853358716
1743443140817,13:45:40.817,-1,-1,1288.64468864469,2.93406593406593,35.4119853358716
1743443140837,13:45:40.837,-1,-1,1279.85347985348,2.92967032967033,35.4119853358716
1743443140856,13:45:40.856,-1,-1,1268.86446886447,2.92527472527473,35.4119853358716
1743443140876,13:45:40.876,-1,-1,1257.87545787546,2.92087912087912,35.4319894015789
1743443140895,13:45:40.895,-1,-1,1239.56043956044,2.91794871794872,35.4319894015789
1743443140915,13:45:40.915,-1,-1,1224.90842490842,2.91501831501831,35.4319894015789
1743443140934,13:45:40.934,-1,-1,1213.18681318681,2.91208791208791,35.4319894015789
1743443140954,13:45:40.954,-1,-1,1201.4652014652,2.90915750915751,35.4319894015789
1743443140973,13:45:40.973,-1,-1,1197.0695970696,2.9032967032967,35.4319894015789
1743443140993,13:45:40.993,-1,-1,1218.31501831502,2.9003663003663,35.4319894015789
1743443141012,13:45:41.012,-1,-1,1245.42124542125,2.89450549450549,35.4319894015789
1743443141032,13:45:41.032,-1,-1,1298.9010989011,2.89157509157509,35.4319894015789
1743443141051,13:45:41.051,-1,-1,1369.23076923077,2.88717948717949,35.4319894015789
1743443141071,13:45:41.071,-1,-1,1427.10622710623,2.88278388278388,35.4319894015789
1743443141090,13:45:41.090,-1,-1,1479.12087912088,2.87838827838828,35.4319894015789
1743443141110,13:45:41.110,-1,-1,1509.15750915751,2.87399267399267,35.4319894015789
1743443141129,13:45:41.129,-1,-1,1534.79853479853,2.86959706959707,35.4319894015789
1743443141149,13:45:41.149,-1,-1,1544.32234432234,2.86520146520146,35.4319894015789
1743443141168,13:45:41.168,-1,-1,1542.12454212454,2.86080586080586,35.4319894015789
1743443141188,13:45:41.188,-1,-1,1531.13553113553,2.85494505494506,35.4319894015789
1743443141207,13:45:41.207,-1,-1,1497.4358974359,2.85054945054945,35.4319894015789
1743443141227,13:45:41.227,-1,-1,1468.86446886447,2.84615384615385,35.4319894015789
1743443141246,13:45:41.246,-1,-1,1450.54945054945,2.84029304029304,35.4319894015789
1743443141266,13:45:41.266,-1,-1,1413.91941391941,2.83589743589744,35.4319894015789
1743443141285,13:45:41.285,-1,-1,1381.68498168498,2.83150183150183,35.4319894015789
1743443141305,13:45:41.305,-1,-1,1365.56776556777,2.82710622710623,35.4319894015789
1743443141324,13:45:41.324,-1,-1,1349.45054945055,2.82124542124542,35.4319894015789
1743443141344,13:45:41.344,-1,-1,1342.85714285714,2.81684981684982,35.4319894015789
1743443141363,13:45:41.363,-1,-1,1327.47252747253,2.81245421245421,35.4319894015789
1743443141383,13:45:41.383,-1,-1,1305.49450549451,2.80805860805861,35.4319894015789
1743443141402,13:45:41.402,-1,-1,1290.10989010989,2.803663003663,35.4319894015789
1743443141422,13:45:41.422,-1,-1,1272.52747252747,2.7978021978022,35.4319894015789
1743443141441,13:45:41.441,-1,-1,1265.20146520147,2.79487179487179,35.4319894015789
1743443141461,13:45:41.461,-1,-1,1264.46886446886,2.78901098901099,35.4319894015789
1743443141480,13:45:41.480,-1,-1,1268.86446886447,2.78461538461538,35.4319894015789
1743443141500,13:45:41.500,-1,-1,1273.99267399267,2.78021978021978,35.4319894015789
1743443141519,13:45:41.519,-1,-1,1265.20146520147,2.77582417582418,35.4319894015789
1743443141539,13:45:41.539,-1,-1,1249.08424908425,2.77142857142857,35.4319894015789
1743443141558,13:45:41.558,-1,-1,1224.90842490842,2.76703296703297,35.4319894015789
1743443141578,13:45:41.578,-1,-1,1215.38461538462,2.76263736263736,35.4319894015789
1743443141597,13:45:41.597,-1,-1,1237.36263736264,2.75970695970696,35.4319894015789
1743443141617,13:45:41.617,-1,-1,1307.69230769231,2.75531135531135,35.4319894015789
1743443141636,13:45:41.636,-1,-1,1391.94139194139,2.75091575091575,35.4319894015789
1743443141656,13:45:41.656,-1,-1,1458.60805860806,2.74798534798535,35.4319894015789
1743443141675,13:45:41.675,-1,-1,1504.7619047619,2.74358974358974,35.4319894015789
1743443141695,13:45:41.695,-1,-1,1545.05494505494,2.73919413919414,35.4319894015789
1743443141714,13:45:41.714,-1,-1,1597.0695970696,2.73772893772894,35.4319894015789
1743443141734,13:45:41.734,-1,-1,1622.71062271062,2.73333333333333,35.4319894015789
1743443141753,13:45:41.753,-1,-1,1630.03663003663,2.73040293040293,35.4319894015789
1743443141773,13:45:41.773,-1,-1,1626.37362637363,2.72747252747253,35.4319894015789
1743443141792,13:45:41.792,-1,-1,1593.40659340659,2.72454212454212,35.4319894015789
1743443141812,13:45:41.812,-1,-1,1552.38095238095,2.72161172161172,35.4319894015789
1743443141831,13:45:41.831,-1,-1,1509.89010989011,2.71868131868132,35.4319894015789
1743443141851,13:45:41.851,-1,-1,1479.12087912088,2.71428571428571,35.4319894015789
1743443141870,13:45:41.870,-1,-1,1447.61904761905,2.71135531135531,35.4569943527458
1743443141890,13:45:41.890,-1,-1,1424.17582417582,2.70989010989011,35.4569943527458
1743443141909,13:45:41.909,-1,-1,1406.59340659341,2.70695970695971,35.4569943527458
1743443141929,13:45:41.929,-1,-1,1391.94139194139,2.7040293040293,35.4569943527458
1743443141948,13:45:41.948,-1,-1,1380.21978021978,2.7010989010989,35.4569943527458
1743443141968,13:45:41.968,-1,-1,1369.23076923077,2.6981684981685,35.4569943527458
1743443141987,13:45:41.987,-1,-1,1353.11355311355,2.6967032967033,35.4569943527458
1743443142007,13:45:42.007,-1,-1,1342.85714285714,2.69377289377289,35.4569943527458
1743443142026,13:45:42.026,-1,-1,1339.92673992674,2.69230769230769,35.4569943527458
1743443142046,13:45:42.046,-1,-1,1331.13553113553,2.68937728937729,35.4569943527458
1743443142065,13:45:42.065,-1,-1,1315.75091575092,2.68644688644689,35.4569943527458
1743443142085,13:45:42.085,-1,-1,1293.77289377289,2.68644688644689,35.4569943527458
1743443142104,13:45:42.104,-1,-1,1275.45787545788,2.68351648351648,35.4569943527458
1743443142124,13:45:42.124,-1,-1,1265.93406593407,2.68058608058608,35.4569943527458
1743443142143,13:45:42.143,-1,-1,1260.80586080586,2.67912087912088,35.4569943527458
1743443142163,13:45:42.163,-1,-1,1257.14285714286,2.67765567765568,35.4569943527458
1743443142182,13:45:42.182,-1,-1,1267.39926739927,2.67472527472527,35.4569943527458
1743443142202,13:45:42.202,-1,-1,1302.5641025641,2.67179487179487,35.4569943527458
1743443142221,13:45:42.221,-1,-1,1367.03296703297,2.67032967032967,35.4569943527458
1743443142241,13:45:42.241,-1,-1,1453.47985347985,2.66886446886447,35.4569943527458
1743443142260,13:45:42.260,-1,-1,1534.79853479853,2.66593406593407,35.4569943527458
1743443142280,13:45:42.280,-1,-1,1604.3956043956,2.66446886446886,35.4569943527458
1743443142299,13:45:42.299,-1,-1,1654.94505494505,2.66446886446886,35.4569943527458
1743443142319,13:45:42.319,-1,-1,1706.95970695971,2.66153846153846,35.4569943527458
1743443142338,13:45:42.338,-1,-1,1738.46153846154,2.66007326007326,35.4569943527458
1743443142358,13:45:42.358,-1,-1,1745.05494505494,2.65714285714286,35.4569943527458
1743443142377,13:45:42.377,-1,-1,1734.79853479853,2.65567765567766,35.4569943527458
1743443142397,13:45:42.397,-1,-1,1712.08791208791,2.65421245421245,35.4569943527458
1743443142416,13:45:42.416,-1,-1,1685.71428571429,2.65421245421245,35.4569943527458
1743443142436,13:45:42.436,-1,-1,1645.42124542125,2.65128205128205,35.4569943527458
1743443142455,13:45:42.455,-1,-1,1599.2673992674,2.64835164835165,35.4569943527458
1743443142475,13:45:42.475,-1,-1,1560.43956043956,2.64835164835165,35.4569943527458
1743443142494,13:45:42.494,-1,-1,1522.34432234432,2.64688644688645,35.4569943527458
1743443142514,13:45:42.514,-1,-1,1493.04029304029,2.64542124542125,35.4569943527458
1743443142533,13:45:42.533,-1,-1,1471.06227106227,2.64395604395604,35.4569943527458
1743443142553,13:45:42.553,-1,-1,1453.47985347985,2.64395604395604,35.4569943527458
1743443142572,13:45:42.572,-1,-1,1451.28205128205,2.64249084249084,35.4569943527458
1743443142592,13:45:42.592,-1,-1,1446.88644688645,2.64102564102564,35.4569943527458
1743443142611,13:45:42.611,-1,-1,1426.37362637363,2.63663003663004,35.4569943527458
1743443142631,13:45:42.631,-1,-1,1395.6043956044,2.63223443223443,35.4569943527458
1743443142650,13:45:42.650,-1,-1,1355.31135531136,2.62783882783883,35.4569943527458
1743443142670,13:45:42.670,-1,-1,1326.00732600733,2.62344322344322,35.4569943527458
1743443142689,13:45:42.689,-1,-1,1300.3663003663,2.62051282051282,35.4569943527458
1743443142709,13:45:42.709,110,-1,1295.2380952381,2.61611721611722,35.4569943527458
1743443142728,13:45:42.728,110,-1,1301.8315018315,2.61172161172161,35.4569943527458
1743443142748,13:45:42.748,110,-1,1297.4358974359,2.60732600732601,35.4569943527458
1743443142767,13:45:42.767,110,-1,1282.05128205128,2.6,35.4569943527458
1743443142787,13:45:42.787,110,-1,1277.65567765568,2.59267399267399,35.4569943527458
1743443142806,13:45:42.806,110,-1,1299.6336996337,2.58681318681319,35.4569943527458
1743443142826,13:45:42.826,110,-1,1373.62637362637,2.58241758241758,35.4569943527458
1743443142845,13:45:42.845,110,-1,1487.91208791209,2.57655677655678,35.4569943527458
1743443142865,13:45:42.865,110,-1,1606.59340659341,2.57069597069597,35.4769982089056
1743443142884,13:45:42.884,110,-1,1693.77289377289,2.56630036630037,35.4769982089056
1743443142904,13:45:42.904,110,-1,1759.70695970696,2.56190476190476,35.4769982089056
1743443142923,13:45:42.923,110,-1,1809.52380952381,2.55750915750916,35.4769982089056
1743443142943,13:45:42.943,110,-1,1838.82783882784,2.55311355311355,35.4769982089056
1743443142962,13:45:42.962,110,-1,1833.69963369963,2.54578754578755,35.4769982089056
1743443142982,13:45:42.982,110,-1,1814.65201465201,2.53699633699634,35.4769982089056
1743443143001,13:45:43.001,110,-1,1786.08058608059,2.52967032967033,35.4769982089056
1743443143021,13:45:43.021,110,-1,1725.27472527473,2.52234432234432,35.4769982089056
1743443143040,13:45:43.040,110,-1,1657.14285714286,2.51355311355311,35.4769982089056
1743443143060,13:45:43.060,110,-1,1600,2.5018315018315,35.4769982089056
1743443143079,13:45:43.079,110,-1,1557.50915750916,2.48717948717949,35.4769982089056
1743443143099,13:45:43.099,110,-1,1528.93772893773,2.46080586080586,35.4769982089056
1743443143118,13:45:43.118,110,-1,1491.57509157509,2.43296703296703,35.4769982089056
1743443143138,13:45:43.138,110,-1,1452.74725274725,2.4021978021978,35.4769982089056
1743443143157,13:45:43.157,110,-1,1443.95604395604,2.39047619047619,35.4769982089056
1743443143177,13:45:43.177,110,-1,1445.42124542125,2.38168498168498,35.4769982089056
1743443143196,13:45:43.196,110,-1,1425.64102564103,2.36996336996337,35.4769982089056
1743443143216,13:45:43.216,110,-1,1405.86080586081,2.35677655677656,35.4769982089056
1743443143235,13:45:43.235,110,-1,1372.89377289377,2.34065934065934,35.4769982089056
1743443143255,13:45:43.255,110,-1,1347.25274725275,2.32161172161172,35.4769982089056
1743443143274,13:45:43.274,99,-1,1327.47252747253,2.3025641025641,35.4769982089056
1743443143294,13:45:43.294,99,-1,1317.94871794872,2.28205128205128,35.4769982089056
1743443143313,13:45:43.313,99,-1,1307.69230769231,2.26300366300366,35.4769982089056
1743443143333,13:45:43.333,99,-1,1299.6336996337,2.24395604395604,35.4769982089056
1743443143352,13:45:43.352,99,-1,1284.98168498168,2.23223443223443,35.4769982089056
1743443143372,13:45:43.372,99,-1,1277.65567765568,2.22344322344322,35.4769982089056
1743443143391,13:45:43.391,99,-1,1287.17948717949,2.21465201465201,35.4769982089056
1743443143411,13:45:43.411,99,-1,1336.26373626374,2.20879120879121,35.4769982089056
1743443143430,13:45:43.430,99,-1,1437.36263736264,2.2014652014652,35.4769982089056
1743443143450,13:45:43.450,99,-1,1580.95238095238,2.19413919413919,35.4769982089056
1743443143469,13:45:43.469,99,-1,1714.28571428571,2.18534798534799,35.4769982089056
1743443143489,13:45:43.489,99,-1,1808.05860805861,2.17216117216117,35.4769982089056
1743443143508,13:45:43.508,99,-1,1854.94505494505,2.16483516483516,35.4769982089056
1743443143528,13:45:43.528,99,-1,1870.32967032967,2.15897435897436,35.4769982089056
1743443143547,13:45:43.547,99,-1,1857.14285714286,2.15604395604396,35.4769982089056
1743443143567,13:45:43.567,99,-1,1824.17582417582,2.15457875457875,35.4769982089056
1743443143586,13:45:43.586,99,-1,1779.48717948718,2.15311355311355,35.4769982089056
1743443143606,13:45:43.606,99,-1,1721.61172161172,2.15018315018315,35.4769982089056
1743443143625,13:45:43.625,99,-1,1647.61904761905,2.13699633699634,35.4769982089056
1743443143645,13:45:43.645,99,-1,1565.56776556777,2.12820512820513,35.4769982089056
1743443143664,13:45:43.664,99,-1,1495.2380952381,2.12234432234432,35.4769982089056
1743443143684,13:45:43.684,99,-1,1457.14285714286,2.11208791208791,35.4769982089056
1743443143703,13:45:43.703,99,-1,1425.64102564103,2.1047619047619,35.4769982089056
1743443143723,13:45:43.723,99,-1,1410.98901098901,2.0974358974359,35.4769982089056
1743443143742,13:45:43.742,99,-1,1404.3956043956,2.08717948717949,35.4769982089056
1743443143762,13:45:43.762,99,-1,1403.663003663,2.08278388278388,35.4769982089056
1743443143781,13:45:43.781,99,-1,1410.25641025641,2.07692307692308,35.4769982089056
1743443143801,13:45:43.801,99,-1,1396.336996337,2.07106227106227,35.4769982089056
1743443143820,13:45:43.820,99,-1,1378.75457875458,2.06373626373626,35.4769982089056
1743443143840,13:45:43.840,99,-1,1361.90476190476,2.06227106227106,35.4769982089056
1743443143859,13:45:43.859,99,-1,1323.07692307692,2.05787545787546,35.502002898138
1743443143879,13:45:43.879,99,-1,1295.9706959707,2.05347985347985,35.502002898138
1743443143898,13:45:43.898,106,-1,1279.85347985348,2.05054945054945,35.502002898138
1743443143918,13:45:43.918,106,-1,1266.66666666667,2.04761904761905,35.502002898138
1743443143937,13:45:43.937,106,-1,1257.87545787546,2.03589743589744,35.502002898138
1743443143957,13:45:43.957,106,-1,1241.02564102564,2.02271062271062,35.502002898138
1743443143976,13:45:43.976,106,-1,1246.15384615385,2.02124542124542,35.502002898138
1743443143996,13:45:43.996,106,-1,1307.69230769231,2.01538461538462,35.502002898138
1743443144015,13:45:44.015,106,-1,1426.37362637363,2.01245421245421,35.502002898138
1743443144035,13:45:44.035,106,-1,1570.69597069597,2.00805860805861,35.502002898138
1743443144054,13:45:44.054,106,-1,1694.50549450549,2.00512820512821,35.502002898138
1743443144074,13:45:44.074,106,-1,1790.47619047619,2.003663003663,35.502002898138
1743443144093,13:45:44.093,106,-1,1848.35164835165,1.9978021978022,35.502002898138
1743443144113,13:45:44.113,106,-1,1864.46886446886,1.996336996337,35.502002898138
1743443144132,13:45:44.132,106,-1,1850.54945054945,1.99487179487179,35.502002898138
1743443144152,13:45:44.152,106,-1,1818.31501831502,1.99487179487179,35.502002898138
1743443144171,13:45:44.171,106,-1,1770.69597069597,1.996336996337,35.502002898138
1743443144191,13:45:44.191,106,-1,1693.77289377289,2.0007326007326,35.502002898138
1743443144210,13:45:44.210,106,-1,1606.59340659341,2.003663003663,35.502002898138
1743443144230,13:45:44.230,106,-1,1530.40293040293,2.0007326007326,35.502002898138
1743443144249,13:45:44.249,106,-1,1466.66666666667,1.99487179487179,35.502002898138
1743443144269,13:45:44.269,106,-1,1416.11721611722,1.98021978021978,35.502002898138
1743443144288,13:45:44.288,106,-1,1375.09157509157,1.97435897435897,35.502002898138
1743443144308,13:45:44.308,106,-1,1339.92673992674,1.95677655677656,35.502002898138
1743443144327,13:45:44.327,106,-1,1327.47252747253,1.94798534798535,35.502002898138
1743443144347,13:45:44.347,106,-1,1320.87912087912,1.94065934065934,35.502002898138
1743443144366,13:45:44.366,106,-1,1312.08791208791,1.93186813186813,35.502002898138
1743443144386,13:45:44.386,106,-1,1294.50549450549,1.92454212454212,35.502002898138
1743443144405,13:45:44.405,106,-1,1283.51648351648,1.92014652014652,35.502002898138
1743443144425,13:45:44.425,106,-1,1279.12087912088,1.92014652014652,35.502002898138
1743443144444,13:45:44.444,106,-1,1269.59706959707,1.92014652014652,35.502002898138
1743443144464,13:45:44.464,106,-1,1251.28205128205,1.91721611721612,35.502002898138
1743443144483,13:45:44.483,96,-1,1228.57142857143,1.91428571428571,35.502002898138
1743443144503,13:45:44.503,96,-1,1210.98901098901,1.91575091575092,35.502002898138
1743443144522,13:45:44.522,96,-1,1196.336996337,1.91721611721612,35.502002898138
1743443144542,13:45:44.542,96,-1,1175.82417582418,1.91575091575092,35.502002898138
1743443144561,13:45:44.561,96,-1,1191.94139194139,1.91428571428571,35.502002898138
1743443144581,13:45:44.581,96,-1,1252.01465201465,1.91282051282051,35.502002898138
1743443144600,13:45:44.600,96,-1,1353.11355311355,1.91282051282051,35.502002898138
1743443144620,13:45:44.620,96,-1,1508.42490842491,1.91282051282051,35.502002898138
1743443144639,13:45:44.639,96,-1,1654.21245421245,1.91135531135531,35.502002898138
1743443144659,13:45:44.659,96,-1,1750.18315018315,1.90695970695971,35.502002898138
1743443144678,13:45:44.678,96,-1,1797.8021978022,1.90695970695971,35.502002898138
1743443144698,13:45:44.698,96,-1,1788.27838827839,1.90842490842491,35.502002898138
1743443144717,13:45:44.717,96,-1,1754.57875457875,1.90695970695971,35.502002898138
1743443144737,13:45:44.737,96,-1,1715.01831501831,1.9040293040293,35.502002898138
1743443144756,13:45:44.756,96,-1,1659.34065934066,1.9025641025641,35.502002898138
1743443144776,13:45:44.776,96,-1,1584.61538461538,1.9040293040293,35.502002898138
1743443144795,13:45:44.795,96,-1,1506.22710622711,1.90695970695971,35.502002898138
1743443144815,13:45:44.815,96,-1,1441.75824175824,1.91135531135531,35.502002898138
1743443144834,13:45:44.834,96,-1,1391.20879120879,1.91868131868132,35.502002898138
1743443144854,13:45:44.854,96,-1,1345.78754578755,1.93040293040293,35.5170056418283
1743443144873,13:45:44.873,96,-1,1315.75091575092,1.94652014652015,35.5170056418283
1743443144893,13:45:44.893,96,-1,1295.2380952381,1.96263736263736,35.5170056418283
1743443144912,13:45:44.912,96,-1,1265.20146520147,1.97728937728938,35.5170056418283
1743443144932,13:45:44.932,96,-1,1264.46886446886,1.99194139194139,35.5170056418283
1743443144951,13:45:44.951,96,-1,1261.53846153846,2.00659340659341,35.5170056418283
1743443144971,13:45:44.971,96,-1,1251.28205128205,2.02124542124542,35.5170056418283
1743443144990,13:45:44.990,96,-1,1232.96703296703,2.03736263736264,35.5170056418283
1743443145010,13:45:45.010,96,-1,1219.04761904762,2.09010989010989,35.5170056418283
1743443145029,13:45:45.029,96,-1,1197.0695970696,2.14139194139194,35.5170056418283
1743443145049,13:45:45.049,96,-1,1172.89377289377,2.15750915750916,35.5170056418283
1743443145068,13:45:45.068,103,-1,1158.24175824176,2.17069597069597,35.5170056418283
1743443145088,13:45:45.088,103,-1,1161.17216117216,2.18388278388278,35.5170056418283
1743443145107,13:45:45.107,103,-1,1156.77655677656,2.19120879120879,35.5170056418283
1743443145127,13:45:45.127,103,-1,1158.97435897436,2.2,35.5170056418283
1743443145146,13:45:45.146,103,-1,1173.62637362637,2.22197802197802,35.5170056418283
1743443145166,13:45:45.166,103,-1,1226.37362637363,2.23369963369963,35.5170056418283
1743443145185,13:45:45.185,103,-1,1325.27472527473,2.24688644688645,35.5170056418283
1743443145205,13:45:45.205,103,-1,1441.75824175824,2.26153846153846,35.5170056418283
1743443145224,13:45:45.224,103,-1,1548.71794871795,2.27765567765568,35.5170056418283
1743443145244,13:45:45.244,103,-1,1615.38461538462,2.28937728937729,35.5170056418283
1743443145263,13:45:45.263,103,-1,1636.63003663004,2.2952380952381,35.5170056418283
1743443145283,13:45:45.283,103,-1,1638.09523809524,2.2981684981685,35.5170056418283
1743443145302,13:45:45.302,103,-1,1626.37362637363,2.2996336996337,35.5170056418283
1743443145322,13:45:45.322,103,-1,1602.9304029304,2.2996336996337,35.5170056418283
1743443145341,13:45:45.341,103,-1,1565.56776556777,2.30549450549451,35.5170056418283
1743443145361,13:45:45.361,103,-1,1517.94871794872,2.30989010989011,35.5170056418283
1743443145380,13:45:45.380,103,-1,1458.60805860806,2.31575091575092,35.5170056418283
1743443145400,13:45:45.400,103,-1,1398.5347985348,2.31868131868132,35.5170056418283
1743443145419,13:45:45.419,103,-1,1345.05494505494,2.32161172161172,35.5170056418283
1743443145439,13:45:45.439,103,-1,1306.22710622711,2.32454212454212,35.5170056418283
1743443145458,13:45:45.458,103,-1,1278.38827838828,2.32600732600733,35.5170056418283
1743443145478,13:45:45.478,103,-1,1254.21245421245,2.32600732600733,35.5170056418283
1743443145497,13:45:45.497,103,-1,1228.57142857143,2.32600732600733,35.5170056418283
1743443145517,13:45:45.517,103,-1,1214.65201465201,2.3010989010989,35.5170056418283
1743443145536,13:45:45.536,103,-1,1213.91941391941,2.28351648351648,35.5170056418283
1743443145556,13:45:45.556,103,-1,1204.3956043956,2.26739926739927,35.5170056418283
1743443145575,13:45:45.575,103,-1,1194.87179487179,2.25274725274725,35.5170056418283
1743443145595,13:45:45.595,103,-1,1192.67399267399,2.23956043956044,35.5170056418283
1743443145614,13:45:45.614,103,-1,1174.35897435897,2.22197802197802,35.5170056418283
1743443145634,13:45:45.634,103,-1,1153.84615384615,2.1985347985348,35.5170056418283
1743443145653,13:45:45.653,103,-1,1150.18315018315,2.18388278388278,35.5170056418283
1743443145673,13:45:45.673,103,-1,1156.04395604396,2.17362637362637,35.5170056418283
1743443145692,13:45:45.692,103,-1,1154.57875457875,2.16190476190476,35.5170056418283
1743443145712,13:45:45.712,103,-1,1137.72893772894,2.15164835164835,35.5170056418283
1743443145731,13:45:45.731,103,-1,1129.67032967033,2.14578754578755,35.5170056418283
1743443145751,13:45:45.751,103,-1,1146.52014652015,2.13846153846154,35.5170056418283
1743443145770,13:45:45.770,103,-1,1213.18681318681,2.13113553113553,35.5170056418283
1743443145790,13:45:45.790,103,-1,1315.75091575092,2.12380952380952,35.5170056418283
1743443145809,13:45:45.809,103,-1,1409.52380952381,2.11941391941392,35.5170056418283
1743443145829,13:45:45.829,103,-1,1480.58608058608,2.11501831501831,35.5170056418283
1743443145848,13:45:45.848,103,-1,1531.86813186813,2.11355311355311,35.5370092185913
1743443145868,13:45:45.868,103,-1,1553.84615384615,2.10769230769231,35.5370092185913
1743443145887,13:45:45.887,103,-1,1556.77655677656,2.1003663003663,35.5370092185913
1743443145907,13:45:45.907,103,-1,1515.01831501831,2.09450549450549,35.5370092185913
1743443145926,13:45:45.926,103,-1,1479.12087912088,2.09010989010989,35.5370092185913
1743443145946,13:45:45.946,103,-1,1438.82783882784,2.08571428571429,35.5370092185913
1743443145965,13:45:45.965,103,-1,1396.336996337,2.08278388278388,35.5370092185913
1743443145985,13:45:45.985,103,-1,1350.91575091575,2.08278388278388,35.5370092185913
1743443146004,13:45:46.004,103,-1,1302.5641025641,2.08278388278388,35.5370092185913
1743443146024,13:45:46.024,103,-1,1273.99267399267,2.08278388278388,35.5370092185913
1743443146043,13:45:46.043,103,-1,1248.35164835165,2.08131868131868,35.5370092185913
1743443146063,13:45:46.063,103,-1,1230.03663003663,2.08131868131868,35.5370092185913
1743443146082,13:45:46.082,103,-1,1219.78021978022,2.07985347985348,35.5370092185913
1743443146102,13:45:46.102,103,-1,1208.05860805861,2.07692307692308,35.5370092185913
1743443146121,13:45:46.121,103,-1,1202.1978021978,2.06666666666667,35.5370092185913
1743443146141,13:45:46.141,103,-1,1203.663003663,2.06520146520146,35.5370092185913
1743443146160,13:45:46.160,103,-1,1206.59340659341,2.06373626373626,35.5370092185913
1743443146180,13:45:46.180,103,-1,1192.67399267399,2.06373626373626,35.5370092185913
1743443146199,13:45:46.199,103,-1,1180.21978021978,2.06227106227106,35.5370092185913
1743443146219,13:45:46.219,103,-1,1164.10256410256,2.06373626373626,35.5370092185913
1743443146238,13:45:46.238,103,-1,1161.17216117216,2.06373626373626,35.5370092185913
1743443146258,13:45:46.258,103,-1,1165.56776556777,2.06520146520146,35.5370092185913
1743443146277,13:45:46.277,99,-1,1161.90476190476,2.06520146520146,35.5370092185913
1743443146297,13:45:46.297,99,-1,1142.12454212454,2.06520146520146,35.5370092185913
1743443146316,13:45:46.316,99,-1,1129.67032967033,2.06666666666667,35.5370092185913
1743443146336,13:45:46.336,99,-1,1133.33333333333,2.06666666666667,35.5370092185913
1743443146355,13:45:46.355,99,-1,1180.95238095238,2.06813186813187,35.5370092185913
1743443146375,13:45:46.375,99,-1,1252.74725274725,2.06813186813187,35.5370092185913
1743443146394,13:45:46.394,99,-1,1333.33333333333,2.06813186813187,35.5370092185913
1743443146414,13:45:46.414,99,-1,1395.6043956044,2.06813186813187,35.5370092185913
1743443146433,13:45:46.433,99,-1,1450.54945054945,2.06813186813187,35.5370092185913
1743443146453,13:45:46.453,99,-1,1458.60805860806,2.06813186813187,35.5370092185913
1743443146472,13:45:46.472,99,-1,1437.36263736264,2.06813186813187,35.5370092185913
1743443146492,13:45:46.492,99,-1,1421.97802197802,2.06813186813187,35.5370092185913
1743443146511,13:45:46.511,99,-1,1398.5347985348,2.06959706959707,35.5370092185913
1743443146531,13:45:46.531,99,-1,1372.89377289377,2.07106227106227,35.5370092185913
1743443146550,13:45:46.550,99,-1,1338.46153846154,2.07252747252747,35.5370092185913
1743443146570,13:45:46.570,99,-1,1314.28571428571,2.07252747252747,35.5370092185913
1743443146589,13:45:46.589,99,-1,1301.0989010989,2.07252747252747,35.5370092185913
1743443146609,13:45:46.609,99,-1,1282.05128205128,2.07399267399267,35.5370092185913
1743443146628,13:45:46.628,99,-1,1270.32967032967,2.07399267399267,35.5370092185913
1743443146648,13:45:46.648,99,-1,1261.53846153846,2.07545787545788,35.5370092185913
1743443146667,13:45:46.667,99,-1,1252.01465201465,2.07545787545788,35.5370092185913
1743443146687,13:45:46.687,99,-1,1244.68864468864,2.07545787545788,35.5370092185913
1743443146706,13:45:46.706,99,-1,1241.02564102564,2.07545787545788,35.5370092185913
1743443146726,13:45:46.726,99,-1,1224.17582417582,2.07545787545788,35.5370092185913
1743443146745,13:45:46.745,99,-1,1213.91941391941,2.07545787545788,35.5370092185913
1743443146765,13:45:46.765,99,-1,1203.663003663,2.07399267399267,35.5370092185913
1743443146784,13:45:46.784,99,-1,1197.8021978022,2.07399267399267,35.5370092185913
1743443146804,13:45:46.804,99,-1,1192.67399267399,2.07252747252747,35.5370092185913
1743443146823,13:45:46.823,99,-1,1200,2.07106227106227,35.5370092185913
1743443146843,13:45:46.843,99,-1,1203.663003663,2.07106227106227,35.557012702222
1743443146862,13:45:46.862,99,-1,1190.47619047619,2.07106227106227,35.557012702222
1743443146882,13:45:46.882,99,-1,1185.34798534799,2.06959706959707,35.557012702222
1743443146901,13:45:46.901,99,-1,1185.34798534799,2.06813186813187,35.557012702222
1743443146921,13:45:46.921,99,-1,1198.5347985348,2.06813186813187,35.557012702222
1743443146940,13:45:46.940,99,-1,1236.63003663004,2.06666666666667,35.557012702222
1743443146960,13:45:46.960,99,-1,1287.17948717949,2.06666666666667,35.557012702222
1743443146979,13:45:46.979,99,-1,1323.07692307692,2.06666666666667,35.557012702222
1743443146999,13:45:46.999,99,-1,1357.50915750916,2.06520146520146,35.557012702222
1743443147018,13:45:47.018,99,-1,1385.34798534799,2.06373626373626,35.557012702222
1743443147038,13:45:47.038,99,-1,1413.18681318681,2.06520146520146,35.557012702222
1743443147057,13:45:47.057,99,-1,1431.50183150183,2.06520146520146,35.557012702222
1743443147077,13:45:47.077,99,-1,1427.10622710623,2.06520146520146,35.557012702222
1743443147096,13:45:47.096,99,-1,1408.05860805861,2.06813186813187,35.557012702222
1743443147116,13:45:47.116,99,-1,1386.08058608059,2.07106227106227,35.557012702222
1743443147135,13:45:47.135,99,-1,1359.70695970696,2.07399267399267,35.557012702222
1743443147155,13:45:47.155,99,-1,1320.14652014652,2.07545787545788,35.557012702222
1743443147174,13:45:47.174,99,-1,1282.78388278388,2.07838827838828,35.557012702222
1743443147194,13:45:47.194,99,-1,1257.14285714286,2.08131868131868,35.557012702222
1743443147213,13:45:47.213,99,-1,1235.16483516484,2.08278388278388,35.557012702222
1743443147233,13:45:47.233,99,-1,1238.09523809524,2.08424908424908,35.557012702222
1743443147252,13:45:47.252,99,-1,1248.35164835165,2.08278388278388,35.557012702222
1743443147272,13:45:47.272,99,-1,1260.07326007326,2.08278388278388,35.557012702222
1743443147291,13:45:47.291,99,-1,1268.86446886447,2.08131868131868,35.557012702222
1743443147311,13:45:47.311,99,-1,1261.53846153846,2.08278388278388,35.557012702222
1743443147330,13:45:47.330,99,-1,1241.02564102564,2.08278388278388,35.557012702222
1743443147350,13:45:47.350,99,-1,1222.71062271062,2.08571428571429,35.557012702222
1743443147369,13:45:47.369,99,-1,1218.31501831502,2.08864468864469,35.557012702222
1743443147389,13:45:47.389,99,-1,1213.91941391941,2.09304029304029,35.557012702222
1743443147408,13:45:47.408,99,-1,1202.9304029304,2.1018315018315,35.557012702222
1743443147428,13:45:47.428,99,-1,1188.27838827839,2.10915750915751,35.557012702222
1743443147447,13:45:47.447,99,-1,1188.27838827839,2.11941391941392,35.557012702222
1743443147467,13:45:47.467,99,-1,1188.27838827839,2.14578754578755,35.557012702222
1743443147486,13:45:47.486,99,-1,1202.9304029304,2.15457875457875,35.557012702222
1743443147506,13:45:47.506,99,-1,1223.44322344322,2.16190476190476,35.557012702222
1743443147525,13:45:47.525,99,-1,1240.29304029304,2.16630036630037,35.557012702222
1743443147545,13:45:47.545,99,-1,1278.38827838828,2.16776556776557,35.557012702222
1743443147564,13:45:47.564,99,-1,1328.20512820513,2.16923076923077,35.557012702222
1743443147584,13:45:47.584,99,-1,1362.63736263736,2.17069597069597,35.557012702222
1743443147603,13:45:47.603,99,-1,1402.1978021978,2.16776556776557,35.557012702222
1743443147623,13:45:47.623,99,-1,1433.69963369963,2.17069597069597,35.557012702222
1743443147642,13:45:47.642,99,-1,1446.15384615385,2.17216117216117,35.557012702222
1743443147662,13:45:47.662,99,-1,1448.35164835165,2.17069597069597,35.557012702222
1743443147681,13:45:47.681,99,-1,1431.50183150183,2.16923076923077,35.557012702222
1743443147701,13:45:47.701,99,-1,1418.31501831502,2.16923076923077,35.557012702222
1743443147720,13:45:47.720,99,-1,1413.91941391941,2.16630036630037,35.557012702222
1743443147740,13:45:47.740,99,-1,1391.94139194139,2.16630036630037,35.557012702222
1743443147759,13:45:47.759,99,-1,1360.43956043956,2.16776556776557,35.557012702222
1743443147779,13:45:47.779,99,-1,1333.33333333333,2.16776556776557,35.557012702222
1743443147798,13:45:47.798,99,-1,1310.62271062271,2.16923076923077,35.557012702222
1743443147818,13:45:47.818,99,-1,1298.9010989011,2.17216117216117,35.557012702222
1743443147837,13:45:47.837,99,-1,1295.9706959707,2.17362637362637,35.5820169257931
1743443147857,13:45:47.857,99,-1,1304.0293040293,2.17509157509157,35.5820169257931
1743443147876,13:45:47.876,99,-1,1312.08791208791,2.17655677655678,35.5820169257931
1743443147896,13:45:47.896,99,-1,1315.01831501831,2.17802197802198,35.5820169257931
1743443147915,13:45:47.915,99,-1,1300.3663003663,2.18095238095238,35.5820169257931
1743443147935,13:45:47.935,99,-1,1279.85347985348,2.18388278388278,35.5820169257931
1743443147954,13:45:47.954,99,-1,1260.80586080586,2.18534798534799,35.5820169257931
1743443147974,13:45:47.974,99,-1,1259.34065934066,2.18827838827839,35.5820169257931
1743443147993,13:45:47.993,99,-1,1257.87545787546,2.19120879120879,35.5820169257931
1743443148013,13:45:48.013,99,-1,1248.35164835165,2.19413919413919,35.5820169257931
1743443148032,13:45:48.032,99,-1,1249.08424908425,2.19560439560439,35.5820169257931
1743443148052,13:45:48.052,103,-1,1238.09523809524,2.1985347985348,35.5820169257931
1743443148071,13:45:48.071,103,-1,1227.10622710623,2.2,35.5820169257931
1743443148091,13:45:48.091,103,-1,1221.97802197802,2.2029304029304,35.5820169257931
1743443148110,13:45:48.110,103,-1,1246.88644688645,2.20586080586081,35.5820169257931
1743443148130,13:45:48.130,103,-1,1299.6336996337,2.20879120879121,35.5820169257931
1743443148149,13:45:48.149,103,-1,1363.36996336996,2.21025641025641,35.5820169257931
1743443148169,13:45:48.169,103,-1,1428.57142857143,2.21318681318681,35.5820169257931
1743443148188,13:45:48.188,103,-1,1482.78388278388,2.21465201465201,35.5820169257931
1743443148208,13:45:48.208,103,-1,1517.21611721612,2.21758241758242,35.5820169257931
1743443148227,13:45:48.227,103,-1,1527.47252747253,2.21904761904762,35.5820169257931
1743443148247,13:45:48.247,103,-1,1532.60073260073,2.22344322344322,35.5820169257931
1743443148266,13:45:48.266,103,-1,1539.92673992674,2.22490842490842,35.5820169257931
1743443148286,13:45:48.286,103,-1,1531.13553113553,2.22783882783883,35.5820169257931
1743443148305,13:45:48.305,103,-1,1509.89010989011,2.23809523809524,35.5820169257931
1743443148325,13:45:48.325,103,-1,1484.24908424908,2.24835164835165,35.5820169257931
1743443148344,13:45:48.344,103,-1,1460.07326007326,2.25128205128205,35.5820169257931
1743443148364,13:45:48.364,103,-1,1435.16483516484,2.25421245421245,35.5820169257931
1743443148383,13:45:48.383,103,-1,1397.8021978022,2.26153846153846,35.5820169257931
1743443148403,13:45:48.403,103,-1,1363.36996336996,2.27765567765568,35.5820169257931
1743443148422,13:45:48.422,103,-1,1357.50915750916,2.28205128205128,35.5820169257931
1743443148442,13:45:48.442,103,-1,1372.89377289377,2.28498168498168,35.5820169257931
1743443148461,13:45:48.461,103,-1,1375.09157509157,2.28498168498168,35.5820169257931
1743443148481,13:45:48.481,103,-1,1372.89377289377,2.28644688644689,35.5820169257931
1743443148500,13:45:48.500,103,-1,1358.24175824176,2.28791208791209,35.5820169257931
1743443148520,13:45:48.520,103,-1,1346.52014652015,2.28937728937729,35.5820169257931
1743443148539,13:45:48.539,103,-1,1329.67032967033,2.28937728937729,35.5820169257931
1743443148559,13:45:48.559,103,-1,1318.68131868132,2.29230769230769,35.5820169257931
1743443148578,13:45:48.578,103,-1,1309.89010989011,2.2952380952381,35.5820169257931
1743443148598,13:45:48.598,103,-1,1293.77289377289,2.2952380952381,35.5820169257931
1743443148617,13:45:48.617,103,-1,1283.51648351648,2.2952380952381,35.5820169257931
1743443148637,13:45:48.637,103,-1,1278.38827838828,2.30695970695971,35.5820169257931
1743443148656,13:45:48.656,103,-1,1276.92307692308,2.31135531135531,35.5820169257931
1743443148676,13:45:48.676,103,-1,1269.59706959707,2.31282051282051,35.5820169257931
1743443148695,13:45:48.695,103,-1,1282.05128205128,2.31428571428571,35.5820169257931
1743443148715,13:45:48.715,103,-1,1329.67032967033,2.31428571428571,35.5820169257931
1743443148734,13:45:48.734,103,-1,1403.663003663,2.31575091575092,35.5820169257931
1743443148754,13:45:48.754,103,-1,1485.71428571429,2.31575091575092,35.5820169257931
1743443148773,13:45:48.773,103,-1,1561.90476190476,2.31575091575092,35.5820169257931
1743443148793,13:45:48.793,103,-1,1610.25641025641,2.31721611721612,35.5820169257931
1743443148812,13:45:48.812,103,-1,1630.76923076923,2.31721611721612,35.5820169257931
1743443148832,13:45:48.832,103,-1,1624.17582417582,2.31721611721612,35.6070210038451
1743443148851,13:45:48.851,103,-1,1606.59340659341,2.31721611721612,35.6070210038451
1743443148871,13:45:48.871,103,-1,1574.35897435897,2.31721611721612,35.6070210038451
1743443148890,13:45:48.890,103,-1,1531.13553113553,2.31721611721612,35.6070210038451
1743443148910,13:45:48.910,103,-1,1488.64468864469,2.31575091575092,35.6070210038451
1743443148929,13:45:48.929,103,-1,1452.01465201465,2.31721611721612,35.6070210038451
1743443148949,13:45:48.949,103,-1,1429.30402930403,2.31721611721612,35.6070210038451
1743443148968,13:45:48.968,103,-1,1408.79120879121,2.31721611721612,35.6070210038451
1743443148988,13:45:48.988,103,-1,1374.35897435897,2.31721611721612,35.6070210038451
1743443149007,13:45:49.007,103,-1,1361.90476190476,2.31721611721612,35.6070210038451
1743443149027,13:45:49.027,103,-1,1354.57875457875,2.31721611721612,35.6070210038451
1743443149046,13:45:49.046,103,-1,1339.19413919414,2.31721611721612,35.6070210038451
1743443149066,13:45:49.066,103,-1,1327.47252747253,2.31721611721612,35.6070210038451
1743443149085,13:45:49.085,103,-1,1324.54212454212,2.32014652014652,35.6070210038451
1743443149105,13:45:49.105,103,-1,1331.86813186813,2.32161172161172,35.6070210038451
1743443149124,13:45:49.124,103,-1,1331.86813186813,2.32014652014652,35.6070210038451
1743443149144,13:45:49.144,103,-1,1320.14652014652,2.32014652014652,35.6070210038451
1743443149163,13:45:49.163,103,-1,1312.82051282051,2.31868131868132,35.6070210038451
1743443149183,13:45:49.183,103,-1,1304.7619047619,2.31868131868132,35.6070210038451
1743443149202,13:45:49.202,106,-1,1280.58608058608,2.31721611721612,35.6070210038451
1743443149222,13:45:49.222,106,-1,1263.73626373626,2.31721611721612,35.6070210038451
1743443149241,13:45:49.241,106,-1,1273.26007326007,2.31721611721612,35.6070210038451
1743443149261,13:45:49.261,106,-1,1285.71428571429,2.31575091575092,35.6070210038451
1743443149280,13:45:49.280,106,-1,1323.07692307692,2.31575091575092,35.6070210038451
1743443149300,13:45:49.300,106,-1,1378.02197802198,2.31721611721612,35.6070210038451
1743443149319,13:45:49.319,106,-1,1440.29304029304,2.31721611721612,35.6070210038451
1743443149339,13:45:49.339,106,-1,1495.9706959707,2.31721611721612,35.6070210038451
1743443149358,13:45:49.358,106,-1,1546.52014652015,2.31721611721612,35.6070210038451
1743443149378,13:45:49.378,106,-1,1575.82417582418,2.31575091575092,35.6070210038451
1743443149397,13:45:49.397,106,-1,1588.27838827839,2.31575091575092,35.6070210038451
1743443149417,13:45:49.417,106,-1,1591.94139194139,2.31575091575092,35.6070210038451
1743443149436,13:45:49.436,106,-1,1580.21978021978,2.31721611721612,35.6070210038451
1743443149456,13:45:49.456,106,-1,1569.23076923077,2.31575091575092,35.6070210038451
1743443149475,13:45:49.475,106,-1,1551.64835164835,2.31428571428571,35.6070210038451
1743443149495,13:45:49.495,106,-1,1525.27472527473,2.31282051282051,35.6070210038451
1743443149514,13:45:49.514,106,-1,1478.38827838828,2.31282051282051,35.6070210038451
1743443149534,13:45:49.534,106,-1,1434.43223443223,2.31135531135531,35.6070210038451
1743443149553,13:45:49.553,106,-1,1407.32600732601,2.31135531135531,35.6070210038451
1743443149573,13:45:49.573,106,-1,1388.27838827839,2.30989010989011,35.6070210038451
1743443149592,13:45:49.592,106,-1,1375.09157509157,2.30989010989011,35.6070210038451
1743443149612,13:45:49.612,106,-1,1361.90476190476,2.30989010989011,35.6070210038451
1743443149631,13:45:49.631,106,-1,1351.64835164835,2.30842490842491,35.6070210038451
1743443149651,13:45:49.651,106,-1,1328.20512820513,2.30695970695971,35.6070210038451
1743443149670,13:45:49.670,106,-1,1302.5641025641,2.30695970695971,35.6070210038451
1743443149690,13:45:49.690,106,-1,1293.04029304029,2.30549450549451,35.6070210038451
1743443149709,13:45:49.709,106,-1,1290.10989010989,2.3040293040293,35.6070210038451
1743443149729,13:45:49.729,106,-1,1284.24908424908,2.3025641025641,35.6070210038451
1743443149748,13:45:49.748,106,-1,1285.71428571429,2.3025641025641,35.6070210038451
1743443149768,13:45:49.768,106,-1,1292.30769230769,2.3010989010989,35.6070210038451
1743443149787,13:45:49.787,106,-1,1279.12087912088,2.3010989010989,35.6070210038451
1743443149807,13:45:49.807,103,-1,1266.66666666667,2.2996336996337,35.6070210038451
1743443149826,13:45:49.826,103,-1,1265.93406593407,2.2981684981685,35.6120218019933
1743443149846,13:45:49.846,103,-1,1287.17948717949,2.2967032967033,35.6120218019933
1743443149865,13:45:49.865,103,-1,1335.53113553114,2.2952380952381,35.6120218019933
1743443149885,13:45:49.885,103,-1,1410.25641025641,2.29377289377289,35.6120218019933
1743443149904,13:45:49.904,103,-1,1477.65567765568,2.29377289377289,35.6120218019933
1743443149924,13:45:49.924,103,-1,1539.92673992674,2.29230769230769,35.6120218019933
1743443149943,13:45:49.943,103,-1,1597.8021978022,2.29377289377289,35.6120218019933
1743443149963,13:45:49.963,103,-1,1630.03663003663,2.2952380952381,35.6120218019933
1743443149982,13:45:49.982,103,-1,1635.89743589744,2.2952380952381,35.6120218019933
1743443150002,13:45:50.002,103,-1,1633.69963369963,2.29377289377289,35.6120218019933
1743443150021,13:45:50.021,103,-1,1616.11721611722,2.29230769230769,35.6120218019933
1743443150041,13:45:50.041,103,-1,1594.13919413919,2.29230769230769,35.6120218019933
1743443150060,13:45:50.060,103,-1,1557.50915750916,2.29377289377289,35.6120218019933
1743443150080,13:45:50.080,103,-1,1506.22710622711,2.2952380952381,35.6120218019933
1743443150099,13:45:50.099,103,-1,1454.21245421245,2.2967032967033,35.6120218019933
1743443150119,13:45:50.119,103,-1,1405.86080586081,2.2996336996337,35.6120218019933
1743443150138,13:45:50.138,103,-1,1388.27838827839,2.3010989010989,35.6120218019933
1743443150158,13:45:50.158,103,-1,1379.48717948718,2.3025641025641,35.6120218019933
1743443150177,13:45:50.177,103,-1,1375.09157509157,2.3040293040293,35.6120218019933
1743443150197,13:45:50.197,103,-1,1372.89377289377,2.3040293040293,35.6120218019933
1743443150216,13:45:50.216,103,-1,1348.71794871795,2.3025641025641,35.6120218019933
1743443150236,13:45:50.236,103,-1,1326.00732600733,2.3025641025641,35.6120218019933
1743443150255,13:45:50.255,103,-1,1318.68131868132,2.2996336996337,35.6120218019933
1743443150275,13:45:50.275,103,-1,1316.48351648352,2.2981684981685,35.6120218019933
1743443150294,13:45:50.294,103,-1,1296.7032967033,2.2981684981685,35.6120218019933
1743443150314,13:45:50.314,103,-1,1278.38827838828,2.2967032967033,35.6120218019933
1743443150333,13:45:50.333,103,-1,1268.13186813187,2.2952380952381,35.6120218019933
1743443150353,13:45:50.353,103,-1,1250.54945054945,2.29377289377289,35.6120218019933
1743443150372,13:45:50.372,103,-1,1230.76923076923,2.29230769230769,35.6120218019933
1743443150392,13:45:50.392,99,-1,1236.63003663004,2.29084249084249,35.6120218019933
1743443150411,13:45:50.411,99,-1,1259.34065934066,2.28937728937729,35.6120218019933
1743443150431,13:45:50.431,99,-1,1309.15750915751,2.28937728937729,35.6120218019933
1743443150450,13:45:50.450,99,-1,1375.82417582418,2.28791208791209,35.6120218019933
1743443150470,13:45:50.470,99,-1,1444.68864468864,2.28644688644689,35.6120218019933
1743443150489,13:45:50.489,99,-1,1526.00732600733,2.28498168498168,35.6120218019933
1743443150509,13:45:50.509,99,-1,1597.8021978022,2.28498168498168,35.6120218019933
1743443150528,13:45:50.528,99,-1,1665.20146520146,2.28351648351648,35.6120218019933
1743443150548,13:45:50.548,99,-1,1705.49450549451,2.28205128205128,35.6120218019933
1743443150567,13:45:50.567,99,-1,1717.94871794872,2.28205128205128,35.6120218019933
1743443150587,13:45:50.587,99,-1,1723.80952380952,2.28058608058608,35.6120218019933
1743443150606,13:45:50.606,99,-1,1705.49450549451,2.27912087912088,35.6120218019933
1743443150626,13:45:50.626,99,-1,1669.59706959707,2.27912087912088,35.6120218019933
1743443150645,13:45:50.645,99,-1,1616.84981684982,2.28351648351648,35.6120218019933
1743443150665,13:45:50.665,99,-1,1561.90476190476,2.28498168498168,35.6120218019933
1743443150684,13:45:50.684,99,-1,1523.07692307692,2.28498168498168,35.6120218019933
1743443150704,13:45:50.704,99,-1,1485.71428571429,2.28498168498168,35.6120218019933
1743443150723,13:45:50.723,99,-1,1443.22344322344,2.28351648351648,35.6120218019933
1743443150743,13:45:50.743,99,-1,1409.52380952381,2.28351648351648,35.6120218019933
1743443150762,13:45:50.762,99,-1,1383.15018315018,2.28205128205128,35.6120218019933
1743443150782,13:45:50.782,99,-1,1366.30036630037,2.28058608058608,35.6120218019933
1743443150801,13:45:50.801,99,-1,1353.84615384615,2.28058608058608,35.6120218019933
1743443150821,13:45:50.821,99,-1,1335.53113553114,2.28058608058608,35.6520279776305
1743443150840,13:45:50.840,99,-1,1320.14652014652,2.27912087912088,35.6520279776305
1743443150860,13:45:50.860,99,-1,1306.95970695971,2.28058608058608,35.6520279776305
1743443150879,13:45:50.879,99,-1,1289.37728937729,2.27912087912088,35.6520279776305
1743443150899,13:45:50.899,99,-1,1262.27106227106,2.28058608058608,35.6520279776305
1743443150918,13:45:50.918,99,-1,1238.09523809524,2.27912087912088,35.6520279776305
1743443150938,13:45:50.938,99,-1,1232.23443223443,2.27912087912088,35.6520279776305
1743443150957,13:45:50.957,99,-1,1239.56043956044,2.27765567765568,35.6520279776305
1743443150977,13:45:50.977,103,-1,1243.22344322344,2.27912087912088,35.6520279776305
1743443150996,13:45:50.996,103,-1,1243.22344322344,2.27912087912088,35.6520279776305
1743443151016,13:45:51.016,103,-1,1268.86446886447,2.27912087912088,35.6520279776305
1743443151035,13:45:51.035,103,-1,1345.78754578755,2.27765567765568,35.6520279776305
1743443151055,13:45:51.055,103,-1,1443.22344322344,2.27619047619048,35.6520279776305
1743443151074,13:45:51.074,103,-1,1536.26373626374,2.27032967032967,35.6520279776305
1743443151094,13:45:51.094,103,-1,1618.31501831502,2.26446886446886,35.6520279776305
1743443151113,13:45:51.113,103,-1,1675.45787545788,2.25860805860806,35.6520279776305
1743443151133,13:45:51.133,103,-1,1712.82051282051,2.25567765567766,35.6520279776305
1743443151152,13:45:51.152,103,-1,1739.19413919414,2.25421245421245,35.6520279776305
1743443151172,13:45:51.172,103,-1,1739.92673992674,2.25274725274725,35.6520279776305
1743443151191,13:45:51.191,103,-1,1718.68131868132,2.25128205128205,35.6520279776305
1743443151211,13:45:51.211,103,-1,1687.91208791209,2.24981684981685,35.6520279776305
1743443151230,13:45:51.230,103,-1,1635.89743589744,2.24981684981685,35.6520279776305
1743443151250,13:45:51.250,103,-1,1565.56776556777,2.24981684981685,35.6520279776305
1743443151269,13:45:51.269,103,-1,1501.0989010989,2.24835164835165,35.6520279776305
1743443151289,13:45:51.289,103,-1,1453.47985347985,2.24981684981685,35.6520279776305
1743443151308,13:45:51.308,103,-1,1409.52380952381,2.24981684981685,35.6520279776305
1743443151328,13:45:51.328,103,-1,1373.62637362637,2.25567765567766,35.6520279776305
1743443151347,13:45:51.347,103,-1,1360.43956043956,2.25860805860806,35.6520279776305
1743443151367,13:45:51.367,103,-1,1343.58974358974,2.25714285714286,35.6520279776305
1743443151386,13:45:51.386,103,-1,1318.68131868132,2.25714285714286,35.6520279776305
1743443151406,13:45:51.406,103,-1,1302.5641025641,2.25567765567766,35.6520279776305
1743443151425,13:45:51.425,103,-1,1287.91208791209,2.25567765567766,35.6520279776305
1743443151445,13:45:51.445,103,-1,1279.85347985348,2.25274725274725,35.6520279776305
1743443151464,13:45:51.464,103,-1,1291.57509157509,2.24542124542124,35.6520279776305
1743443151484,13:45:51.484,103,-1,1301.8315018315,2.24102564102564,35.6520279776305
1743443151503,13:45:51.503,103,-1,1295.2380952381,2.23516483516484,35.6520279776305
1743443151523,13:45:51.523,103,-1,1280.58608058608,2.23076923076923,35.6520279776305
1743443151542,13:45:51.542,103,-1,1247.61904761905,2.22344322344322,35.6520279776305
1743443151562,13:45:51.562,103,-1,1219.78021978022,2.21611721611722,35.6520279776305
1743443151581,13:45:51.581,103,-1,1201.4652014652,2.21611721611722,35.6520279776305
1743443151601,13:45:51.601,103,-1,1197.0695970696,2.21758241758242,35.6520279776305
1743443151620,13:45:51.620,103,-1,1205.86080586081,2.2043956043956,35.6520279776305
1743443151640,13:45:51.640,103,-1,1254.21245421245,2.2014652014652,35.6520279776305
1743443151659,13:45:51.659,103,-1,1344.32234432234,2.2,35.6520279776305
1743443151679,13:45:51.679,103,-1,1451.28205128205,2.1985347985348,35.6520279776305
1743443151698,13:45:51.698,103,-1,1545.05494505494,2.1970695970696,35.6520279776305
1743443151718,13:45:51.718,103,-1,1612.45421245421,2.1970695970696,35.6520279776305
1743443151737,13:45:51.737,103,-1,1669.59706959707,2.19560439560439,35.6520279776305
1743443151757,13:45:51.757,103,-1,1700.3663003663,2.19120879120879,35.6520279776305
1743443151776,13:45:51.776,103,-1,1695.9706959707,2.18827838827839,35.6520279776305
1743443151796,13:45:51.796,103,-1,1674.72527472527,2.18241758241758,35.6520279776305
1743443151815,13:45:51.815,103,-1,1647.61904761905,2.17655677655678,35.6620294633321
1743443151835,13:45:51.835,103,-1,1605.86080586081,2.17362637362637,35.6620294633321
1743443151854,13:45:51.854,103,-1,1545.05494505494,2.17069597069597,35.6620294633321
1743443151874,13:45:51.874,103,-1,1476.19047619048,2.16630036630037,35.6620294633321
1743443151893,13:45:51.893,103,-1,1420.51282051282,2.16043956043956,35.6620294633321
1743443151913,13:45:51.913,103,-1,1382.41758241758,2.16190476190476,35.6620294633321
1743443151932,13:45:51.932,103,-1,1358.97435897436,2.16776556776557,35.6620294633321
1743443151952,13:45:51.952,103,-1,1340.65934065934,2.16776556776557,35.6620294633321
1743443151971,13:45:51.971,103,-1,1326.73992673993,2.16630036630037,35.6620294633321
1743443151991,13:45:51.991,103,-1,1312.82051282051,2.16336996336996,35.6620294633321
1743443152010,13:45:52.010,103,-1,1305.49450549451,2.16043956043956,35.6620294633321
1743443152030,13:45:52.030,103,-1,1292.30769230769,2.15604395604396,35.6620294633321
1743443152049,13:45:52.049,103,-1,1271.79487179487,2.15164835164835,35.6620294633321
1743443152069,13:45:52.069,103,-1,1254.21245421245,2.14725274725275,35.6620294633321
1743443152088,13:45:52.088,103,-1,1235.89743589744,2.14285714285714,35.6620294633321
1743443152108,13:45:52.108,103,-1,1223.44322344322,2.14139194139194,35.6620294633321
1743443152127,13:45:52.127,103,-1,1200.7326007326,2.13992673992674,35.6620294633321
1743443152147,13:45:52.147,103,-1,1179.48717948718,2.13846153846154,35.6620294633321
1743443152166,13:45:52.166,99,-1,1170.69597069597,2.13699633699634,35.6620294633321
1743443152186,13:45:52.186,99,-1,1170.69597069597,2.13699633699634,35.6620294633321
1743443152205,13:45:52.205,99,-1,1191.20879120879,2.13553113553114,35.6620294633321
1743443152225,13:45:52.225,99,-1,1252.01465201465,2.13260073260073,35.6620294633321
1743443152244,13:45:52.244,99,-1,1338.46153846154,2.13113553113553,35.6620294633321
1743443152264,13:45:52.264,99,-1,1430.76923076923,2.12820512820513,35.6620294633321
1743443152283,13:45:52.283,99,-1,1511.35531135531,2.12673992673993,35.6620294633321
1743443152303,13:45:52.303,99,-1,1581.68498168498,2.12380952380952,35.6620294633321
1743443152322,13:45:52.322,99,-1,1616.84981684982,2.12234432234432,35.6620294633321
1743443152342,13:45:52.342,99,-1,1627.10622710623,2.12087912087912,35.6620294633321
1743443152361,13:45:52.361,99,-1,1615.38461538462,2.11794871794872,35.6620294633321
1743443152381,13:45:52.381,99,-1,1594.87179487179,2.11501831501831,35.6620294633321
1743443152400,13:45:52.400,99,-1,1562.63736263736,2.11208791208791,35.6620294633321
1743443152420,13:45:52.420,99,-1,1509.89010989011,2.11062271062271,35.6620294633321
1743443152439,13:45:52.439,99,-1,1454.21245421245,2.10769230769231,35.6620294633321
1743443152459,13:45:52.459,99,-1,1413.18681318681,2.10622710622711,35.6620294633321
1743443152478,13:45:52.478,99,-1,1394.13919413919,2.10622710622711,35.6620294633321
1743443152498,13:45:52.498,99,-1,1371.42857142857,2.10622710622711,35.6620294633321
1743443152517,13:45:52.517,99,-1,1339.92673992674,2.10769230769231,35.6620294633321
1743443152537,13:45:52.537,99,-1,1306.95970695971,2.10769230769231,35.6620294633321
1743443152556,13:45:52.556,99,-1,1298.9010989011,2.1047619047619,35.6620294633321
1743443152576,13:45:52.576,99,-1,1298.9010989011,2.1018315018315,35.6620294633321
1743443152595,13:45:52.595,99,-1,1301.8315018315,2.1003663003663,35.6620294633321
1743443152615,13:45:52.615,99,-1,1297.4358974359,2.0989010989011,35.6620294633321
1743443152634,13:45:52.634,99,-1,1284.24908424908,2.1003663003663,35.6620294633321
1743443152654,13:45:52.654,99,-1,1265.93406593407,2.1032967032967,35.6620294633321
1743443152673,13:45:52.673,99,-1,1255.67765567766,2.1032967032967,35.6620294633321
1743443152693,13:45:52.693,99,-1,1236.63003663004,2.1018315018315,35.6620294633321
1743443152712,13:45:52.712,99,-1,1223.44322344322,2.1003663003663,35.6620294633321
1743443152732,13:45:52.732,99,-1,1216.11721611722,2.1003663003663,35.6620294633321
1743443152751,13:45:52.751,103,-1,1208.79120879121,2.1003663003663,35.6620294633321
1743443152771,13:45:52.771,103,-1,1202.1978021978,2.0989010989011,35.6620294633321
1743443152790,13:45:52.790,103,-1,1208.05860805861,2.0989010989011,35.6620294633321
1743443152810,13:45:52.810,103,-1,1250.54945054945,2.0989010989011,35.6870330757229
1743443152829,13:45:52.829,103,-1,1326.73992673993,2.0974358974359,35.6870330757229
1743443152849,13:45:52.849,103,-1,1407.32600732601,2.0974358974359,35.6870330757229
1743443152868,13:45:52.868,103,-1,1482.78388278388,2.09450549450549,35.6870330757229
1743443152888,13:45:52.888,103,-1,1547.25274725275,2.09304029304029,35.6870330757229
1743443152907,13:45:52.907,103,-1,1588.27838827839,2.09304029304029,35.6870330757229
1743443152927,13:45:52.927,103,-1,1613.91941391941,2.09304029304029,35.6870330757229
1743443152946,13:45:52.946,103,-1,1619.78021978022,2.09304029304029,35.6870330757229
1743443152966,13:45:52.966,103,-1,1615.38461538462,2.09304029304029,35.6870330757229
1743443152985,13:45:52.985,103,-1,1583.88278388278,2.09304029304029,35.6870330757229
1743443153005,13:45:53.005,103,-1,1534.79853479853,2.09157509157509,35.6870330757229
1743443153024,13:45:53.024,103,-1,1460.80586080586,2.09157509157509,35.6870330757229
1743443153044,13:45:53.044,103,-1,1391.20879120879,2.09304029304029,35.6870330757229
1743443153063,13:45:53.063,103,-1,1356.77655677656,2.0959706959707,35.6870330757229
1743443153083,13:45:53.083,103,-1,1336.99633699634,2.0959706959707,35.6870330757229
1743443153102,13:45:53.102,103,-1,1321.61172161172,2.0959706959707,35.6870330757229
1743443153122,13:45:53.122,103,-1,1315.01831501831,2.09450549450549,35.6870330757229
1743443153141,13:45:53.141,103,-1,1309.15750915751,2.09450549450549,35.6870330757229
1743443153161,13:45:53.161,103,-1,1289.37728937729,2.09304029304029,35.6870330757229
1743443153180,13:45:53.180,103,-1,1280.58608058608,2.09304029304029,35.6870330757229
1743443153200,13:45:53.200,103,-1,1268.13186813187,2.09304029304029,35.6870330757229
1743443153219,13:45:53.219,103,-1,1261.53846153846,2.09157509157509,35.6870330757229
1743443153239,13:45:53.239,103,-1,1252.01465201465,2.09157509157509,35.6870330757229
1743443153258,13:45:53.258,103,-1,1249.81684981685,2.09157509157509,35.6870330757229
1743443153278,13:45:53.278,103,-1,1237.36263736264,2.09157509157509,35.6870330757229
1743443153297,13:45:53.297,103,-1,1217.58241758242,2.09157509157509,35.6870330757229
1743443153317,13:45:53.317,103,-1,1213.91941391941,2.09157509157509,35.6870330757229
1743443153336,13:45:53.336,103,-1,1220.51282051282,2.09157509157509,35.6870330757229
1743443153356,13:45:53.356,103,-1,1221.97802197802,2.09010989010989,35.6870330757229
1743443153375,13:45:53.375,103,-1,1235.16483516484,2.09010989010989,35.6870330757229
1743443153395,13:45:53.395,103,-1,1268.86446886447,2.09010989010989,35.6870330757229
1743443153414,13:45:53.414,103,-1,1336.99633699634,2.08864468864469,35.6870330757229
1743443153434,13:45:53.434,103,-1,1406.59340659341,2.08864468864469,35.6870330757229
1743443153453,13:45:53.453,103,-1,1466.66666666667,2.08717948717949,35.6870330757229
1743443153473,13:45:53.473,103,-1,1503.2967032967,2.08571428571429,35.6870330757229
1743443153492,13:45:53.492,103,-1,1536.26373626374,2.08571428571429,35.6870330757229
1743443153512,13:45:53.512,103,-1,1553.84615384615,2.08717948717949,35.6870330757229
1743443153531,13:45:53.531,103,-1,1575.09157509157,2.08717948717949,35.6870330757229
1743443153551,13:45:53.551,103,-1,1589.01098901099,2.08864468864469,35.6870330757229
1743443153570,13:45:53.570,103,-1,1584.61538461538,2.09010989010989,35.6870330757229
1743443153590,13:45:53.590,103,-1,1551.64835164835,2.09157509157509,35.6870330757229
1743443153609,13:45:53.609,103,-1,1493.77289377289,2.09304029304029,35.6870330757229
1743443153629,13:45:53.629,103,-1,1444.68864468864,2.0959706959707,35.6870330757229
1743443153648,13:45:53.648,103,-1,1410.98901098901,2.0974358974359,35.6870330757229
1743443153668,13:45:53.668,103,-1,1375.09157509157,2.0974358974359,35.6870330757229
1743443153687,13:45:53.687,103,-1,1342.85714285714,2.0974358974359,35.6870330757229
1743443153707,13:45:53.707,103,-1,1327.47252747253,2.0959706959707,35.6870330757229
1743443153726,13:45:53.726,103,-1,1316.48351648352,2.0989010989011,35.6870330757229
1743443153746,13:45:53.746,103,-1,1321.61172161172,2.0989010989011,35.6870330757229
1743443153765,13:45:53.765,103,-1,1329.67032967033,2.1018315018315,35.6870330757229
1743443153785,13:45:53.785,103,-1,1312.82051282051,2.1018315018315,35.6870330757229
1743443153804,13:45:53.804,103,-1,1297.4358974359,2.1032967032967,35.7120365425944
1743443153824,13:45:53.824,103,-1,1284.24908424908,2.10622710622711,35.7120365425944
1743443153844,13:45:53.843,103,-1,1273.99267399267,2.10915750915751,35.7120365425944
1743443153863,13:45:53.863,103,-1,1261.53846153846,2.11208791208791,35.7120365425944
1743443153883,13:45:53.882,103,-1,1238.09523809524,2.11355311355311,35.7120365425944
1743443153902,13:45:53.902,103,-1,1223.44322344322,2.11648351648352,35.7120365425944
1743443153922,13:45:53.921,103,-1,1205.86080586081,2.11941391941392,35.7120365425944
1743443153941,13:45:53.941,103,-1,1208.05860805861,2.12087912087912,35.7120365425944
1743443153961,13:45:53.961,103,-1,1213.18681318681,2.12380952380952,35.7120365425944
1743443153980,13:45:53.980,103,-1,1235.16483516484,2.12527472527472,35.7120365425944
1743443154000,13:45:54.000,103,-1,1288.64468864469,2.12820512820513,35.7120365425944
1743443154019,13:45:54.019,103,-1,1367.76556776557,2.13260073260073,35.7120365425944
1743443154039,13:45:54.039,103,-1,1452.01465201465,2.13553113553114,35.7120365425944
1743443154058,13:45:54.058,103,-1,1525.27472527473,2.13992673992674,35.7120365425944
1743443154078,13:45:54.078,103,-1,1574.35897435897,2.14285714285714,35.7120365425944
1743443154097,13:45:54.097,103,-1,1602.1978021978,2.14578754578755,35.7120365425944
1743443154117,13:45:54.117,103,-1,1605.12820512821,2.15018315018315,35.7120365425944
1743443154136,13:45:54.136,103,-1,1604.3956043956,2.15311355311355,35.7120365425944
1743443154156,13:45:54.156,103,-1,1591.20879120879,2.15750915750916,35.7120365425944
1743443154175,13:45:54.175,103,-1,1572.89377289377,2.16043956043956,35.7120365425944
1743443154195,13:45:54.195,103,-1,1545.05494505494,2.16483516483516,35.7120365425944
1743443154214,13:45:54.214,103,-1,1492.30769230769,2.16923076923077,35.7120365425944
1743443154234,13:45:54.234,103,-1,1437.36263736264,2.17362637362637,35.7120365425944
1743443154253,13:45:54.253,103,-1,1395.6043956044,2.17655677655678,35.7120365425944
1743443154273,13:45:54.273,103,-1,1370.69597069597,2.18095238095238,35.7120365425944
1743443154292,13:45:54.292,103,-1,1355.31135531136,2.18681318681319,35.7120365425944
1743443154312,13:45:54.312,103,-1,1334.79853479853,2.18974358974359,35.7120365425944
1743443154331,13:45:54.331,103,-1,1317.94871794872,2.19267399267399,35.7120365425944
1743443154351,13:45:54.351,103,-1,1299.6336996337,2.19413919413919,35.7120365425944
1743443154370,13:45:54.370,103,-1,1292.30769230769,2.19560439560439,35.7120365425944
1743443154390,13:45:54.390,103,-1,1289.37728937729,2.2,35.7120365425944
1743443154409,13:45:54.409,103,-1,1287.91208791209,2.2,35.7120365425944
1743443154429,13:45:54.429,103,-1,1291.57509157509,2.1985347985348,35.7120365425944
1743443154448,13:45:54.448,103,-1,1287.91208791209,2.2014652014652,35.7120365425944
1743443154468,13:45:54.468,103,-1,1269.59706959707,2.2043956043956,35.7120365425944
1743443154487,13:45:54.487,103,-1,1259.34065934066,2.20732600732601,35.7120365425944
1743443154507,13:45:54.507,103,-1,1246.88644688645,2.21025641025641,35.7120365425944
1743443154526,13:45:54.526,103,-1,1230.03663003663,2.21025641025641,35.7120365425944
1743443154546,13:45:54.546,103,-1,1219.78021978022,2.21318681318681,35.7120365425944
1743443154565,13:45:54.565,103,-1,1250.54945054945,2.21611721611722,35.7120365425944
1743443154585,13:45:54.585,103,-1,1327.47252747253,2.21758241758242,35.7120365425944
1743443154604,13:45:54.604,103,-1,1419.78021978022,2.21318681318681,35.7120365425944
1743443154624,13:45:54.624,103,-1,1492.30769230769,2.21611721611722,35.7120365425944
1743443154643,13:45:54.643,103,-1,1544.32234432234,2.21758241758242,35.7120365425944
1743443154663,13:45:54.663,103,-1,1575.82417582418,2.21904761904762,35.7120365425944
1743443154682,13:45:54.682,103,-1,1602.9304029304,2.22051282051282,35.7120365425944
1743443154702,13:45:54.702,103,-1,1607.32600732601,2.22051282051282,35.7120365425944
1743443154721,13:45:54.721,103,-1,1584.61538461538,2.22197802197802,35.7120365425944
1743443154741,13:45:54.741,103,-1,1560.43956043956,2.22344322344322,35.7120365425944
1743443154760,13:45:54.760,103,-1,1512.08791208791,2.22344322344322,35.7120365425944
1743443154780,13:45:54.780,103,-1,1454.94505494505,2.22197802197802,35.7120365425944
1743443154799,13:45:54.799,103,-1,1403.663003663,2.22197802197802,35.7320392113179
1743443154819,13:45:54.819,103,-1,1372.89377289377,2.22344322344322,35.7320392113179
1743443154838,13:45:54.838,103,-1,1354.57875457875,2.22490842490842,35.7320392113179
1743443154858,13:45:54.858,103,-1,1335.53113553114,2.22637362637363,35.7320392113179
1743443154877,13:45:54.877,103,-1,1328.93772893773,2.22637362637363,35.7320392113179
1743443154897,13:45:54.897,103,-1,1327.47252747253,2.22930402930403,35.7320392113179
1743443154916,13:45:54.916,103,-1,1326.00732600733,2.23076923076923,35.7320392113179
1743443154936,13:45:54.936,103,-1,1313.55311355311,2.23223443223443,35.7320392113179
1743443154955,13:45:54.955,103,-1,1300.3663003663,2.23369963369963,35.7320392113179
1743443154975,13:45:54.975,103,-1,1287.17948717949,2.24102564102564,35.7320392113179
1743443154994,13:45:54.994,103,-1,1280.58608058608,2.24395604395604,35.7320392113179
1743443155014,13:45:55.014,103,-1,1263.73626373626,2.24688644688645,35.7320392113179
1743443155033,13:45:55.033,103,-1,1240.29304029304,2.24688644688645,35.7320392113179
1743443155053,13:45:55.053,103,-1,1230.03663003663,2.24981684981685,35.7320392113179
1743443155072,13:45:55.072,103,-1,1217.58241758242,2.25714285714286,35.7320392113179
1743443155092,13:45:55.092,103,-1,1204.3956043956,2.25860805860806,35.7320392113179
1743443155111,13:45:55.111,103,-1,1202.1978021978,2.26739926739927,35.7320392113179
1743443155131,13:45:55.131,103,-1,1226.37362637363,2.27326007326007,35.7320392113179
1743443155150,13:45:55.150,103,-1,1277.65567765568,2.27765567765568,35.7320392113179
1743443155170,13:45:55.170,103,-1,1354.57875457875,2.28351648351648,35.7320392113179
1743443155189,13:45:55.189,103,-1,1448.35164835165,2.28644688644689,35.7320392113179
1743443155209,13:45:55.209,103,-1,1520.87912087912,2.28791208791209,35.7320392113179
1743443155228,13:45:55.228,103,-1,1577.28937728938,2.29084249084249,35.7320392113179
1743443155248,13:45:55.248,103,-1,1610.25641025641,2.29230769230769,35.7320392113179
1743443155267,13:45:55.267,103,-1,1620.51282051282,2.2967032967033,35.7320392113179
1743443155287,13:45:55.287,103,-1,1594.13919413919,2.2996336996337,35.7320392113179
1743443155306,13:45:55.306,103,-1,1555.31135531136,2.3025641025641,35.7320392113179
1743443155326,13:45:55.326,103,-1,1519.41391941392,2.3040293040293,35.7320392113179
1743443155345,13:45:55.345,103,-1,1488.64468864469,2.30549450549451,35.7320392113179
1743443155365,13:45:55.365,103,-1,1449.81684981685,2.30695970695971,35.7320392113179
1743443155384,13:45:55.384,103,-1,1405.86080586081,2.30989010989011,35.7320392113179
1743443155404,13:45:55.404,103,-1,1367.03296703297,2.31575091575092,35.7320392113179
1743443155423,13:45:55.423,103,-1,1365.56776556777,2.31428571428571,35.7320392113179
1743443155443,13:45:55.443,103,-1,1364.83516483516,2.31868131868132,35.7320392113179
1743443155462,13:45:55.462,103,-1,1357.50915750916,2.32307692307692,35.7320392113179
1743443155482,13:45:55.482,103,-1,1338.46153846154,2.33186813186813,35.7320392113179
1743443155501,13:45:55.501,103,-1,1321.61172161172,2.35384615384615,35.7320392113179
1743443155521,13:45:55.521,103,-1,1317.21611721612,2.38754578754579,35.7320392113179
1743443155540,13:45:55.540,103,-1,1302.5641025641,2.3992673992674,35.7320392113179
1743443155560,13:45:55.560,103,-1,1282.78388278388,2.4021978021978,35.7320392113179
1743443155579,13:45:55.579,103,-1,1259.34065934066,2.403663003663,35.7320392113179
1743443155599,13:45:55.599,103,-1,1248.35164835165,2.40659340659341,35.7320392113179
1743443155618,13:45:55.618,103,-1,1235.89743589744,2.41391941391941,35.7320392113179
1743443155638,13:45:55.638,103,-1,1218.31501831502,2.41684981684982,35.7320392113179
1743443155657,13:45:55.657,103,-1,1211.72161172161,2.41978021978022,35.7320392113179
1743443155677,13:45:55.677,103,-1,1215.38461538462,2.42271062271062,35.7320392113179
1743443155696,13:45:55.696,103,-1,1234.43223443223,2.42417582417582,35.7320392113179
1743443155716,13:45:55.716,103,-1,1279.12087912088,2.42417582417582,35.7320392113179
1743443155735,13:45:55.735,103,-1,1360.43956043956,2.42417582417582,35.7320392113179
1743443155755,13:45:55.755,103,-1,1444.68864468864,2.42271062271062,35.7320392113179
1743443155774,13:45:55.774,103,-1,1507.69230769231,2.42124542124542,35.7320392113179
1743443155794,13:45:55.794,103,-1,1565.56776556777,2.41978021978022,35.7620430397801
1743443155813,13:45:55.813,103,-1,1607.32600732601,2.41684981684982,35.7620430397801
1743443155833,13:45:55.833,103,-1,1624.90842490842,2.41831501831502,35.7620430397801
1743443155852,13:45:55.852,103,-1,1620.51282051282,2.41978021978022,35.7620430397801
1743443155872,13:45:55.872,103,-1,1596.336996337,2.41978021978022,35.7620430397801
1743443155891,13:45:55.891,103,-1,1557.50915750916,2.41831501831502,35.7620430397801
1743443155911,13:45:55.911,103,-1,1523.07692307692,2.41831501831502,35.7620430397801
1743443155930,13:45:55.930,103,-1,1496.7032967033,2.41831501831502,35.7620430397801
1743443155950,13:45:55.950,103,-1,1456.41025641026,2.41831501831502,35.7620430397801
1743443155969,13:45:55.969,103,-1,1408.05860805861,2.41831501831502,35.7620430397801
1743443155989,13:45:55.989,103,-1,1380.95238095238,2.41684981684982,35.7620430397801
1743443156008,13:45:56.008,103,-1,1367.03296703297,2.41538461538462,35.7620430397801
1743443156028,13:45:56.028,103,-1,1359.70695970696,2.41245421245421,35.7620430397801
1743443156047,13:45:56.047,103,-1,1357.50915750916,2.41098901098901,35.7620430397801
1743443156067,13:45:56.067,103,-1,1352.38095238095,2.41098901098901,35.7620430397801
1743443156086,13:45:56.086,103,-1,1338.46153846154,2.40952380952381,35.7620430397801
1743443156106,13:45:56.106,103,-1,1321.61172161172,2.41245421245421,35.7620430397801
1743443156125,13:45:56.125,103,-1,1310.62271062271,2.41391941391941,35.7620430397801
1743443156145,13:45:56.145,103,-1,1297.4358974359,2.41684981684982,35.7620430397801
1743443156164,13:45:56.164,103,-1,1293.77289377289,2.41538461538462,35.7620430397801
1743443156184,13:45:56.184,103,-1,1285.71428571429,2.41098901098901,35.7620430397801
1743443156203,13:45:56.203,103,-1,1271.79487179487,2.40952380952381,35.7620430397801
1743443156223,13:45:56.223,103,-1,1244.68864468864,2.41098901098901,35.7620430397801
1743443156242,13:45:56.242,103,-1,1216.84981684982,2.40952380952381,35.7620430397801
1743443156262,13:45:56.262,99,-1,1210.25641025641,2.40805860805861,35.7620430397801
1743443156281,13:45:56.281,99,-1,1219.78021978022,2.403663003663,35.7620430397801
1743443156301,13:45:56.301,99,-1,1268.86446886447,2.3978021978022,35.7620430397801
1743443156320,13:45:56.320,99,-1,1351.64835164835,2.38461538461538,35.7620430397801
1743443156340,13:45:56.340,99,-1,1433.69963369963,2.37435897435897,35.7620430397801
1743443156359,13:45:56.359,99,-1,1507.69230769231,2.36703296703297,35.7620430397801
1743443156379,13:45:56.379,99,-1,1565.56776556777,2.35531135531135,35.7620430397801
1743443156398,13:45:56.398,99,-1,1613.91941391941,2.34945054945055,35.7620430397801
1743443156418,13:45:56.418,99,-1,1652.01465201465,2.35091575091575,35.7620430397801
1743443156437,13:45:56.437,99,-1,1660.07326007326,2.34212454212454,35.7620430397801
1743443156457,13:45:56.457,99,-1,1641.75824175824,2.33186813186813,35.7620430397801
1743443156476,13:45:56.476,99,-1,1610.98901098901,2.32893772893773,35.7620430397801
1743443156496,13:45:56.496,99,-1,1565.56776556777,2.32747252747253,35.7620430397801
1743443156515,13:45:56.515,99,-1,1511.35531135531,2.32747252747253,35.7620430397801
1743443156535,13:45:56.535,99,-1,1460.80586080586,2.32600732600733,35.7620430397801
1743443156554,13:45:56.554,99,-1,1435.89743589744,2.32454212454212,35.7620430397801
1743443156574,13:45:56.574,99,-1,1413.91941391941,2.32014652014652,35.7620430397801
1743443156593,13:45:56.593,99,-1,1397.8021978022,2.31575091575092,35.7620430397801
1743443156613,13:45:56.613,99,-1,1377.28937728938,2.30989010989011,35.7620430397801
1743443156632,13:45:56.632,99,-1,1358.97435897436,2.30549450549451,35.7620430397801
1743443156652,13:45:56.652,99,-1,1351.64835164835,2.28937728937729,35.7620430397801
1743443156671,13:45:56.671,99,-1,1350.18315018315,2.28351648351648,35.7620430397801
1743443156691,13:45:56.691,99,-1,1342.12454212454,2.27619047619048,35.7620430397801
1743443156710,13:45:56.710,99,-1,1320.14652014652,2.27179487179487,35.7620430397801
1743443156730,13:45:56.730,99,-1,1293.77289377289,2.26300366300366,35.7620430397801
1743443156749,13:45:56.749,99,-1,1273.26007326007,2.25421245421245,35.7620430397801
1743443156769,13:45:56.769,99,-1,1250.54945054945,2.24688644688645,35.7620430397801
1743443156788,13:45:56.788,99,-1,1232.96703296703,2.23956043956044,35.7770448754309
1743443156808,13:45:56.808,99,-1,1221.97802197802,2.23369963369963,35.7770448754309
1743443156827,13:45:56.827,99,-1,1234.43223443223,2.22783882783883,35.7770448754309
1743443156847,13:45:56.847,99,-1,1235.89743589744,2.21758241758242,35.7770448754309
1743443156866,13:45:56.866,106,-1,1241.02564102564,2.21025641025641,35.7770448754309
1743443156886,13:45:56.886,106,-1,1283.51648351648,2.2043956043956,35.7770448754309
1743443156905,13:45:56.905,106,-1,1354.57875457875,2.1985347985348,35.7770448754309
1743443156925,13:45:56.925,106,-1,1432.96703296703,2.19413919413919,35.7770448754309
1743443156944,13:45:56.944,106,-1,1499.6336996337,2.18827838827839,35.7770448754309
1743443156964,13:45:56.964,106,-1,1558.24175824176,2.18388278388278,35.7770448754309
1743443156983,13:45:56.983,106,-1,1609.52380952381,2.17655677655678,35.7770448754309
1743443157003,13:45:57.003,106,-1,1651.28205128205,2.17069597069597,35.7770448754309
1743443157022,13:45:57.022,106,-1,1668.86446886447,2.16483516483516,35.7770448754309
1743443157042,13:45:57.042,106,-1,1662.27106227106,2.16043956043956,35.7770448754309
1743443157061,13:45:57.061,106,-1,1639.56043956044,2.15311355311355,35.7770448754309
1743443157081,13:45:57.081,106,-1,1613.91941391941,2.15018315018315,35.7770448754309
1743443157100,13:45:57.100,106,-1,1578.75457875458,2.14578754578755,35.7770448754309
1743443157120,13:45:57.120,106,-1,1531.13553113553,2.14285714285714,35.7770448754309
1743443157139,13:45:57.139,106,-1,1485.71428571429,2.14139194139194,35.7770448754309
1743443157159,13:45:57.159,106,-1,1443.95604395604,2.13553113553114,35.7770448754309
1743443157178,13:45:57.178,106,-1,1408.79120879121,2.13553113553114,35.7770448754309
1743443157198,13:45:57.198,106,-1,1386.08058608059,2.13113553113553,35.7770448754309
1743443157217,13:45:57.217,106,-1,1383.15018315018,2.12673992673993,35.7770448754309
1743443157237,13:45:57.237,106,-1,1374.35897435897,2.12234432234432,35.7770448754309
1743443157256,13:45:57.256,106,-1,1348.71794871795,2.11794871794872,35.7770448754309
1743443157276,13:45:57.276,106,-1,1330.40293040293,2.11501831501831,35.7770448754309
1743443157295,13:45:57.295,106,-1,1327.47252747253,2.11208791208791,35.7770448754309
1743443157315,13:45:57.315,106,-1,1308.42490842491,2.10769230769231,35.7770448754309
1743443157334,13:45:57.334,106,-1,1271.79487179487,2.1047619047619,35.7770448754309
1743443157354,13:45:57.354,106,-1,1246.88644688645,2.1003663003663,35.7770448754309
1743443157373,13:45:57.373,106,-1,1236.63003663004,2.0959706959707,35.7770448754309
1743443157393,13:45:57.393,106,-1,1251.28205128205,2.09157509157509,35.7770448754309
1743443157412,13:45:57.412,106,-1,1269.59706959707,2.08864468864469,35.7770448754309
1743443157432,13:45:57.432,106,-1,1266.66666666667,2.08717948717949,35.7770448754309
1743443157451,13:45:57.451,99,-1,1257.87545787546,2.08424908424908,35.7770448754309
1743443157471,13:45:57.471,99,-1,1287.17948717949,2.08131868131868,35.7770448754309
1743443157490,13:45:57.490,99,-1,1346.52014652015,2.07838827838828,35.7770448754309
1743443157510,13:45:57.510,99,-1,1424.17582417582,2.07545787545788,35.7770448754309
1743443157529,13:45:57.529,99,-1,1517.94871794872,2.07106227106227,35.7770448754309
1743443157549,13:45:57.549,99,-1,1597.0695970696,2.06959706959707,35.7770448754309
1743443157568,13:45:57.568,99,-1,1660.80586080586,2.06813186813187,35.7770448754309
1743443157588,13:45:57.588,99,-1,1703.2967032967,2.06520146520146,35.7770448754309
1743443157607,13:45:57.607,99,-1,1708.42490842491,2.06227106227106,35.7770448754309
1743443157627,13:45:57.627,99,-1,1688.64468864469,2.05934065934066,35.7770448754309
1743443157646,13:45:57.646,99,-1,1660.07326007326,2.05787545787546,35.7770448754309
1743443157666,13:45:57.666,99,-1,1632.23443223443,2.05787545787546,35.7770448754309
1743443157685,13:45:57.685,99,-1,1586.81318681319,2.05641025641026,35.7770448754309
1743443157705,13:45:57.705,99,-1,1541.39194139194,2.05201465201465,35.7770448754309
1743443157724,13:45:57.724,99,-1,1492.30769230769,2.05054945054945,35.7770448754309
1743443157744,13:45:57.744,99,-1,1455.67765567766,2.04908424908425,35.7770448754309
1743443157763,13:45:57.763,99,-1,1422.71062271062,2.04761904761905,35.7770448754309
1743443157783,13:45:57.783,99,-1,1405.86080586081,2.04761904761905,35.8020478184335
1743443157802,13:45:57.802,99,-1,1400.7326007326,2.04615384615385,35.8020478184335
1743443157822,13:45:57.822,99,-1,1400.7326007326,2.04468864468864,35.8020478184335
1743443157841,13:45:57.841,99,-1,1396.336996337,2.04468864468864,35.8020478184335
1743443157861,13:45:57.861,99,-1,1373.62637362637,2.04615384615385,35.8020478184335
1743443157880,13:45:57.880,99,-1,1345.05494505494,2.04908424908425,35.8020478184335
1743443157900,13:45:57.900,99,-1,1321.61172161172,2.05054945054945,35.8020478184335
1743443157919,13:45:57.919,99,-1,1298.1684981685,2.05494505494505,35.8020478184335
1743443157939,13:45:57.939,99,-1,1292.30769230769,2.05787545787546,35.8020478184335
1743443157958,13:45:57.958,99,-1,1290.10989010989,2.06373626373626,35.8020478184335
1743443157978,13:45:57.978,99,-1,1268.13186813187,2.06813186813187,35.8020478184335
1743443157997,13:45:57.997,99,-1,1256.41025641026,2.07252747252747,35.8020478184335
1743443158017,13:45:58.017,99,-1,1250.54945054945,2.07545787545788,35.8020478184335
1743443158036,13:45:58.036,99,-1,1245.42124542125,2.07692307692308,35.8020478184335
1743443158056,13:45:58.056,103,-1,1264.46886446886,2.07838827838828,35.8020478184335
1743443158075,13:45:58.075,103,-1,1334.79853479853,2.07985347985348,35.8020478184335
1743443158095,13:45:58.095,103,-1,1426.37362637363,2.07985347985348,35.8020478184335
1743443158114,13:45:58.114,103,-1,1514.28571428571,2.08131868131868,35.8020478184335
1743443158134,13:45:58.134,103,-1,1572.16117216117,2.08131868131868,35.8020478184335
1743443158153,13:45:58.153,103,-1,1608.79120879121,2.08131868131868,35.8020478184335
1743443158173,13:45:58.173,103,-1,1626.37362637363,2.08131868131868,35.8020478184335
1743443158192,13:45:58.192,103,-1,1617.58241758242,2.08131868131868,35.8020478184335
1743443158212,13:45:58.212,103,-1,1586.08058608059,2.08278388278388,35.8020478184335
1743443158231,13:45:58.231,103,-1,1545.05494505494,2.08278388278388,35.8020478184335
1743443158251,13:45:58.251,103,-1,1504.0293040293,2.08278388278388,35.8020478184335
1743443158270,13:45:58.270,103,-1,1466.66666666667,2.08424908424908,35.8020478184335
1743443158290,13:45:58.290,103,-1,1426.37362637363,2.08424908424908,35.8020478184335
1743443158309,13:45:58.309,103,-1,1387.54578754579,2.08571428571429,35.8020478184335
1743443158329,13:45:58.329,103,-1,1358.97435897436,2.08571428571429,35.8020478184335
1743443158348,13:45:58.348,103,-1,1348.71794871795,2.08717948717949,35.8020478184335
1743443158368,13:45:58.368,103,-1,1346.52014652015,2.08717948717949,35.8020478184335
1743443158387,13:45:58.387,103,-1,1347.98534798535,2.08864468864469,35.8020478184335
1743443158407,13:45:58.407,103,-1,1338.46153846154,2.08864468864469,35.8020478184335
1743443158426,13:45:58.426,103,-1,1317.94871794872,2.08864468864469,35.8020478184335
1743443158446,13:45:58.446,103,-1,1312.08791208791,2.09010989010989,35.8020478184335
1743443158465,13:45:58.465,103,-1,1306.95970695971,2.09157509157509,35.8020478184335
1743443158485,13:45:58.485,103,-1,1298.1684981685,2.09157509157509,35.8020478184335
1743443158504,13:45:58.504,103,-1,1300.3663003663,2.09304029304029,35.8020478184335
1743443158524,13:45:58.524,103,-1,1292.30769230769,2.09304029304029,35.8020478184335
1743443158543,13:45:58.543,103,-1,1279.85347985348,2.09450549450549,35.8020478184335
1743443158563,13:45:58.563,103,-1,1278.38827838828,2.0959706959707,35.8020478184335
1743443158582,13:45:58.582,103,-1,1285.71428571429,2.0959706959707,35.8020478184335
1743443158602,13:45:58.602,103,-1,1287.91208791209,2.0974358974359,35.8020478184335
1743443158621,13:45:58.621,99,-1,1293.77289377289,2.0974358974359,35.8020478184335
1743443158641,13:45:58.641,99,-1,1338.46153846154,2.0974358974359,35.8020478184335
1743443158660,13:45:58.660,99,-1,1406.59340659341,2.0989010989011,35.8020478184335
1743443158680,13:45:58.680,99,-1,1476.92307692308,2.1003663003663,35.8020478184335
1743443158699,13:45:58.699,99,-1,1544.32234432234,2.1003663003663,35.8020478184335
1743443158719,13:45:58.719,99,-1,1600.7326007326,2.1003663003663,35.8020478184335
1743443158738,13:45:58.738,99,-1,1635.16483516484,2.1003663003663,35.8020478184335
1743443158758,13:45:58.758,99,-1,1639.56043956044,2.1018315018315,35.8020478184335
1743443158777,13:45:58.777,99,-1,1621.97802197802,2.1018315018315,35.827050615917
1743443158797,13:45:58.797,99,-1,1590.47619047619,2.1032967032967,35.827050615917
1743443158816,13:45:58.816,99,-1,1554.57875457875,2.1047619047619,35.827050615917
1743443158836,13:45:58.836,99,-1,1507.69230769231,2.1047619047619,35.827050615917
1743443158855,13:45:58.855,99,-1,1454.94505494505,2.1047619047619,35.827050615917
1743443158875,13:45:58.875,99,-1,1412.45421245421,2.10622710622711,35.827050615917
1743443158894,13:45:58.894,99,-1,1394.87179487179,2.10769230769231,35.827050615917
1743443158914,13:45:58.914,99,-1,1386.81318681319,2.10915750915751,35.827050615917
1743443158933,13:45:58.933,99,-1,1380.21978021978,2.10915750915751,35.827050615917
1743443158953,13:45:58.953,99,-1,1369.96336996337,2.11062271062271,35.827050615917
1743443158972,13:45:58.972,99,-1,1362.63736263736,2.11062271062271,35.827050615917
1743443158992,13:45:58.992,99,-1,1350.18315018315,2.11062271062271,35.827050615917
1743443159011,13:45:59.011,99,-1,1333.33333333333,2.11062271062271,35.827050615917
1743443159031,13:45:59.031,99,-1,1323.07692307692,2.11208791208791,35.827050615917
1743443159050,13:45:59.050,99,-1,1313.55311355311,2.11208791208791,35.827050615917
1743443159070,13:45:59.070,99,-1,1304.0293040293,2.11208791208791,35.827050615917
1743443159089,13:45:59.089,99,-1,1287.17948717949,2.11208791208791,35.827050615917
1743443159109,13:45:59.109,99,-1,1268.86446886447,2.11208791208791,35.827050615917
1743443159128,13:45:59.128,99,-1,1263.73626373626,2.11208791208791,35.827050615917
1743443159148,13:45:59.148,99,-1,1264.46886446886,2.11208791208791,35.827050615917
1743443159167,13:45:59.167,99,-1,1250.54945054945,2.11355311355311,35.827050615917
1743443159187,13:45:59.187,106,-1,1260.07326007326,2.11208791208791,35.827050615917
1743443159206,13:45:59.206,106,-1,1306.95970695971,2.11208791208791,35.827050615917
1743443159226,13:45:59.226,106,-1,1398.5347985348,2.11208791208791,35.827050615917
1743443159245,13:45:59.245,106,-1,1495.2380952381,2.11208791208791,35.827050615917
1743443159265,13:45:59.265,106,-1,1574.35897435897,2.11208791208791,35.827050615917
1743443159284,13:45:59.284,106,-1,1626.37362637363,2.11208791208791,35.827050615917
1743443159304,13:45:59.304,106,-1,1660.80586080586,2.11355311355311,35.827050615917
1743443159323,13:45:59.323,106,-1,1678.38827838828,2.11355311355311,35.827050615917
1743443159343,13:45:59.343,106,-1,1679.85347985348,2.11208791208791,35.827050615917
1743443159362,13:45:59.362,106,-1,1660.07326007326,2.11355311355311,35.827050615917
1743443159382,13:45:59.382,106,-1,1616.84981684982,2.11355311355311,35.827050615917
1743443159401,13:45:59.401,106,-1,1562.63736263736,2.11355311355311,35.827050615917
1743443159421,13:45:59.421,106,-1,1513.55311355311,2.11208791208791,35.827050615917
1743443159440,13:45:59.440,106,-1,1469.59706959707,2.11208791208791,35.827050615917
1743443159460,13:45:59.460,106,-1,1435.89743589744,2.11208791208791,35.827050615917
1743443159479,13:45:59.479,106,-1,1411.72161172161,2.11208791208791,35.827050615917
1743443159499,13:45:59.499,106,-1,1389.74358974359,2.11208791208791,35.827050615917
1743443159518,13:45:59.518,106,-1,1384.61538461538,2.11208791208791,35.827050615917
1743443159538,13:45:59.538,106,-1,1394.13919413919,2.11208791208791,35.827050615917
1743443159557,13:45:59.557,106,-1,1399.2673992674,2.11208791208791,35.827050615917
1743443159577,13:45:59.577,106,-1,1386.08058608059,2.11208791208791,35.827050615917
1743443159596,13:45:59.596,106,-1,1370.69597069597,2.11208791208791,35.827050615917
1743443159616,13:45:59.616,106,-1,1350.91575091575,2.11208791208791,35.827050615917
1743443159635,13:45:59.635,106,-1,1343.58974358974,2.11208791208791,35.827050615917
1743443159655,13:45:59.655,106,-1,1338.46153846154,2.11208791208791,35.827050615917
1743443159674,13:45:59.674,106,-1,1316.48351648352,2.11062271062271,35.827050615917
1743443159694,13:45:59.694,106,-1,1283.51648351648,2.11208791208791,35.827050615917
1743443159713,13:45:59.713,106,-1,1278.38827838828,2.11208791208791,35.827050615917
1743443159733,13:45:59.733,106,-1,1265.20146520147,2.11208791208791,35.827050615917
1743443159752,13:45:59.752,106,-1,1254.94505494505,2.11062271062271,35.827050615917
1743443159772,13:45:59.772,106,-1,1282.78388278388,2.11062271062271,35.8470527491299
1743443159791,13:45:59.791,106,-1,1350.18315018315,2.11062271062271,35.8470527491299
1743443159811,13:45:59.811,106,-1,1438.09523809524,2.11062271062271,35.8470527491299
1743443159830,13:45:59.830,106,-1,1525.27472527473,2.11062271062271,35.8470527491299
1743443159850,13:45:59.850,106,-1,1605.12820512821,2.11208791208791,35.8470527491299
1743443159869,13:45:59.869,106,-1,1665.93406593407,2.11208791208791,35.8470527491299
1743443159889,13:45:59.889,106,-1,1698.1684981685,2.11208791208791,35.8470527491299
1743443159908,13:45:59.908,106,-1,1707.69230769231,2.11355311355311,35.8470527491299
1743443159928,13:45:59.928,106,-1,1682.05128205128,2.11355311355311,35.8470527491299
1743443159947,13:45:59.947,106,-1,1643.22344322344,2.11501831501831,35.8470527491299
1743443159967,13:45:59.967,106,-1,1613.18681318681,2.11501831501831,35.8470527491299
1743443159986,13:45:59.986,106,-1,1580.95238095238,2.11648351648352,35.8470527491299
1743443160006,13:46:00.006,106,-1,1547.98534798535,2.11648351648352,35.8470527491299
1743443160025,13:46:00.025,106,-1,1498.9010989011,2.11648351648352,35.8470527491299
1743443160045,13:46:00.045,106,-1,1457.14285714286,2.11501831501831,35.8470527491299
1743443160064,13:46:00.064,106,-1,1430.03663003663,2.11355311355311,35.8470527491299
1743443160084,13:46:00.084,106,-1,1413.18681318681,2.11355311355311,35.8470527491299
1743443160103,13:46:00.103,106,-1,1413.91941391941,2.11208791208791,35.8470527491299
1743443160123,13:46:00.123,106,-1,1413.18681318681,2.11062271062271,35.8470527491299
1743443160142,13:46:00.142,106,-1,1380.95238095238,2.10915750915751,35.8470527491299
1743443160162,13:46:00.162,106,-1,1333.33333333333,2.10769230769231,35.8470527491299
1743443160181,13:46:00.181,106,-1,1303.2967032967,2.10769230769231,35.8470527491299
1743443160201,13:46:00.201,106,-1,1292.30769230769,2.10622710622711,35.8470527491299
1743443160220,13:46:00.220,106,-1,1284.24908424908,2.1047619047619,35.8470527491299
1743443160240,13:46:00.240,106,-1,1282.05128205128,2.1032967032967,35.8470527491299
1743443160259,13:46:00.259,106,-1,1286.44688644689,2.1032967032967,35.8470527491299
1743443160279,13:46:00.279,106,-1,1298.1684981685,2.1032967032967,35.8470527491299
1743443160298,13:46:00.298,106,-1,1304.7619047619,2.1032967032967,35.8470527491299
1743443160318,13:46:00.318,106,-1,1300.3663003663,2.1018315018315,35.8470527491299
1743443160337,13:46:00.337,106,-1,1304.0293040293,2.1003663003663,35.8470527491299
1743443160357,13:46:00.357,103,-1,1327.47252747253,2.1003663003663,35.8470527491299
1743443160376,13:46:00.376,103,-1,1387.54578754579,2.0989010989011,35.8470527491299
1743443160396,13:46:00.396,103,-1,1468.86446886447,2.0989010989011,35.8470527491299
1743443160415,13:46:00.415,103,-1,1539.92673992674,2.0974358974359,35.8470527491299
1743443160435,13:46:00.435,103,-1,1614.65201465201,2.0974358974359,35.8470527491299
1743443160454,13:46:00.454,103,-1,1682.05128205128,2.0974358974359,35.8470527491299
1743443160474,13:46:00.474,103,-1,1719.41391941392,2.0974358974359,35.8470527491299
1743443160493,13:46:00.493,103,-1,1721.61172161172,2.0989010989011,35.8470527491299
1743443160513,13:46:00.513,103,-1,1690.10989010989,2.0974358974359,35.8470527491299
1743443160532,13:46:00.532,103,-1,1644.68864468864,2.0989010989011,35.8470527491299
1743443160552,13:46:00.552,103,-1,1600.7326007326,2.0989010989011,35.8470527491299
1743443160571,13:46:00.571,103,-1,1551.64835164835,2.0989010989011,35.8470527491299
1743443160591,13:46:00.591,103,-1,1497.4358974359,2.0989010989011,35.8470527491299
1743443160610,13:46:00.610,103,-1,1447.61904761905,2.0989010989011,35.8470527491299
1743443160630,13:46:00.630,103,-1,1421.24542124542,2.0989010989011,35.8470527491299
1743443160649,13:46:00.649,103,-1,1405.12820512821,2.1003663003663,35.8470527491299
1743443160669,13:46:00.669,103,-1,1396.336996337,2.1003663003663,35.8470527491299
1743443160688,13:46:00.688,103,-1,1394.87179487179,2.1003663003663,35.8470527491299
1743443160708,13:46:00.708,103,-1,1386.08058608059,2.1003663003663,35.8470527491299
1743443160727,13:46:00.727,103,-1,1363.36996336996,2.1003663003663,35.8470527491299
1743443160747,13:46:00.747,103,-1,1331.86813186813,2.1003663003663,35.8470527491299
1743443160766,13:46:00.766,103,-1,1317.21611721612,2.1003663003663,35.8770557743264
1743443160786,13:46:00.786,103,-1,1316.48351648352,2.1018315018315,35.8770557743264
1743443160805,13:46:00.805,103,-1,1303.2967032967,2.1018315018315,35.8770557743264
1743443160825,13:46:00.825,103,-1,1300.3663003663,2.1018315018315,35.8770557743264
1743443160844,13:46:00.844,103,-1,1304.0293040293,2.1018315018315,35.8770557743264
1743443160864,13:46:00.864,103,-1,1283.51648351648,2.1018315018315,35.8770557743264
1743443160883,13:46:00.883,103,-1,1257.14285714286,2.1032967032967,35.8770557743264
1743443160903,13:46:00.903,103,-1,1241.75824175824,2.1032967032967,35.8770557743264
1743443160922,13:46:00.922,103,-1,1225.64102564103,2.1018315018315,35.8770557743264
1743443160942,13:46:00.942,103,-1,1240.29304029304,2.1018315018315,35.8770557743264
1743443160961,13:46:00.961,103,-1,1301.8315018315,2.1003663003663,35.8770557743264
1743443160981,13:46:00.981,103,-1,1405.12820512821,2.1003663003663,35.8770557743264
1743443161000,13:46:01.000,103,-1,1492.30769230769,2.1003663003663,35.8770557743264
1743443161020,13:46:01.020,103,-1,1555.31135531136,2.0989010989011,35.8770557743264
1743443161039,13:46:01.039,103,-1,1602.1978021978,2.0989010989011,35.8770557743264
1743443161059,13:46:01.059,103,-1,1638.82783882784,2.0989010989011,35.8770557743264
1743443161078,13:46:01.078,103,-1,1646.15384615385,2.0974358974359,35.8770557743264
1743443161098,13:46:01.098,103,-1,1625.64102564103,2.0974358974359,35.8770557743264
1743443161117,13:46:01.117,103,-1,1600,2.0974358974359,35.8770557743264
1743443161137,13:46:01.137,103,-1,1585.34798534799,2.0989010989011,35.8770557743264
1743443161156,13:46:01.156,103,-1,1563.36996336996,2.0974358974359,35.8770557743264
1743443161176,13:46:01.176,103,-1,1516.48351648352,2.0974358974359,35.8770557743264
1743443161195,13:46:01.195,103,-1,1465.93406593407,2.0974358974359,35.8770557743264
1743443161215,13:46:01.215,103,-1,1424.17582417582,2.0989010989011,35.8770557743264
1743443161234,13:46:01.234,103,-1,1380.95238095238,2.0974358974359,35.8770557743264
1743443161254,13:46:01.254,103,-1,1350.18315018315,2.0974358974359,35.8770557743264
1743443161273,13:46:01.273,103,-1,1334.06593406593,2.0974358974359,35.8770557743264
1743443161293,13:46:01.293,103,-1,1311.35531135531,2.0959706959707,35.8770557743264
1743443161312,13:46:01.312,103,-1,1299.6336996337,2.09450549450549,35.8770557743264
1743443161332,13:46:01.332,103,-1,1298.9010989011,2.09450549450549,35.8770557743264
1743443161351,13:46:01.351,103,-1,1304.0293040293,2.09450549450549,35.8770557743264
1743443161371,13:46:01.371,103,-1,1306.22710622711,2.09304029304029,35.8770557743264
1743443161390,13:46:01.390,103,-1,1295.2380952381,2.09304029304029,35.8770557743264
1743443161410,13:46:01.410,103,-1,1268.13186813187,2.09450549450549,35.8770557743264
1743443161429,13:46:01.429,103,-1,1236.63003663004,2.09450549450549,35.8770557743264
1743443161449,13:46:01.449,103,-1,1216.84981684982,2.09450549450549,35.8770557743264
1743443161468,13:46:01.468,103,-1,1210.25641025641,2.09304029304029,35.8770557743264
1743443161488,13:46:01.488,103,-1,1212.45421245421,2.09304029304029,35.8770557743264
1743443161507,13:46:01.507,103,-1,1210.25641025641,2.09157509157509,35.8770557743264
1743443161527,13:46:01.527,103,-1,1200.7326007326,2.09157509157509,35.8770557743264
1743443161546,13:46:01.546,103,-1,1230.76923076923,2.09157509157509,35.8770557743264
1743443161566,13:46:01.566,103,-1,1304.0293040293,2.09157509157509,35.8770557743264
1743443161585,13:46:01.585,103,-1,1391.20879120879,2.09157509157509,35.8770557743264
1743443161605,13:46:01.605,103,-1,1475.45787545788,2.09157509157509,35.8770557743264
1743443161624,13:46:01.624,103,-1,1523.07692307692,2.09010989010989,35.8770557743264
1743443161644,13:46:01.644,103,-1,1546.52014652015,2.09010989010989,35.8770557743264
1743443161663,13:46:01.663,103,-1,1561.90476190476,2.09010989010989,35.8770557743264
1743443161683,13:46:01.683,103,-1,1556.04395604396,2.08864468864469,35.8770557743264
1743443161702,13:46:01.702,103,-1,1534.79853479853,2.08571428571429,35.8770557743264
1743443161722,13:46:01.722,103,-1,1513.55311355311,2.07692307692308,35.8770557743264
1743443161741,13:46:01.741,103,-1,1477.65567765568,2.06813186813187,35.8770557743264
1743443161761,13:46:01.761,103,-1,1434.43223443223,2.06080586080586,35.8920572083443
1743443161780,13:46:01.780,103,-1,1387.54578754579,2.05201465201465,35.8920572083443
1743443161800,13:46:01.800,103,-1,1344.32234432234,2.04175824175824,35.8920572083443
1743443161819,13:46:01.819,103,-1,1324.54212454212,2.03003663003663,35.8920572083443
1743443161839,13:46:01.839,103,-1,1320.87912087912,2.01684981684982,35.8920572083443
1743443161858,13:46:01.858,103,-1,1315.75091575092,2.00659340659341,35.8920572083443
1743443161878,13:46:01.878,103,-1,1284.98168498168,2.003663003663,35.8920572083443
1743443161897,13:46:01.897,103,-1,1265.93406593407,1.9978021978022,35.8920572083443
1743443161917,13:46:01.917,103,-1,1263.00366300366,1.9978021978022,35.8920572083443
1743443161936,13:46:01.936,103,-1,1268.86446886447,2.0021978021978,35.8920572083443
1743443161956,13:46:01.956,103,-1,1265.93406593407,2.0007326007326,35.8920572083443
1743443161975,13:46:01.975,103,-1,1255.67765567766,1.98901098901099,35.8920572083443
1743443161995,13:46:01.995,103,-1,1249.81684981685,1.98021978021978,35.8920572083443
1743443162014,13:46:02.014,103,-1,1236.63003663004,1.96556776556777,35.8920572083443
1743443162034,13:46:02.034,103,-1,1221.24542124542,1.95238095238095,35.8920572083443
1743443162053,13:46:02.053,103,-1,1216.11721611722,1.94212454212454,35.8920572083443
1743443162073,13:46:02.073,103,-1,1204.3956043956,1.93333333333333,35.8920572083443
1743443162092,13:46:02.092,103,-1,1194.87179487179,1.92600732600733,35.8920572083443
1743443162112,13:46:02.112,103,-1,1200,1.92014652014652,35.8920572083443
1743443162131,13:46:02.131,103,-1,1229.30402930403,1.91575091575092,35.8920572083443
1743443162151,13:46:02.151,103,-1,1287.91208791209,1.91428571428571,35.8920572083443
1743443162170,13:46:02.170,103,-1,1354.57875457875,1.90989010989011,35.8920572083443
1743443162190,13:46:02.190,103,-1,1416.11721611722,1.9054945054945,35.8920572083443
1743443162209,13:46:02.209,103,-1,1471.06227106227,1.9010989010989,35.8920572083443
1743443162229,13:46:02.229,103,-1,1509.89010989011,1.8981684981685,35.8920572083443
1743443162248,13:46:02.248,103,-1,1504.7619047619,1.8967032967033,35.8920572083443
1743443162268,13:46:02.268,103,-1,1493.04029304029,1.8981684981685,35.8920572083443
1743443162287,13:46:02.287,103,-1,1481.31868131868,1.8967032967033,35.8920572083443
1743443162307,13:46:02.307,103,-1,1461.53846153846,1.8967032967033,35.8920572083443
1743443162326,13:46:02.326,103,-1,1421.97802197802,1.89523809523809,35.8920572083443
1743443162346,13:46:02.346,103,-1,1380.95238095238,1.89523809523809,35.8920572083443
1743443162365,13:46:02.365,103,-1,1355.31135531136,1.89523809523809,35.8920572083443
1743443162385,13:46:02.385,103,-1,1331.13553113553,1.89523809523809,35.8920572083443
1743443162404,13:46:02.404,103,-1,1309.15750915751,1.89523809523809,35.8920572083443
1743443162424,13:46:02.424,103,-1,1289.37728937729,1.89523809523809,35.8920572083443
1743443162443,13:46:02.443,103,-1,1281.31868131868,1.89523809523809,35.8920572083443
1743443162463,13:46:02.463,103,-1,1271.06227106227,1.8967032967033,35.8920572083443
1743443162482,13:46:02.482,103,-1,1254.94505494505,1.89523809523809,35.8920572083443
1743443162502,13:46:02.502,103,-1,1241.02564102564,1.89523809523809,35.8920572083443
1743443162521,13:46:02.521,103,-1,1235.89743589744,1.89523809523809,35.8920572083443
1743443162541,13:46:02.541,103,-1,1237.36263736264,1.89230769230769,35.8920572083443
1743443162560,13:46:02.560,103,-1,1246.88644688645,1.89084249084249,35.8920572083443
1743443162580,13:46:02.580,103,-1,1241.02564102564,1.88937728937729,35.8920572083443
1743443162599,13:46:02.599,103,-1,1238.82783882784,1.88791208791209,35.8920572083443
1743443162619,13:46:02.619,103,-1,1238.82783882784,1.88644688644689,35.8920572083443
1743443162638,13:46:02.638,103,-1,1225.64102564103,1.88498168498169,35.8920572083443
1743443162658,13:46:02.658,103,-1,1200.7326007326,1.88351648351648,35.8920572083443
1743443162677,13:46:02.677,106,-1,1183.15018315018,1.88205128205128,35.8920572083443
1743443162697,13:46:02.697,106,-1,1193.40659340659,1.88058608058608,35.8920572083443
1743443162716,13:46:02.716,106,-1,1227.83882783883,1.88058608058608,35.8920572083443
1743443162736,13:46:02.736,106,-1,1276.92307692308,1.88205128205128,35.8920572083443
1743443162755,13:46:02.755,106,-1,1348.71794871795,1.88205128205128,35.9170594819589
1743443162775,13:46:02.775,106,-1,1401.4652014652,1.88205128205128,35.9170594819589
1743443162794,13:46:02.794,106,-1,1437.36263736264,1.88205128205128,35.9170594819589
1743443162814,13:46:02.814,106,-1,1475.45787545788,1.88205128205128,35.9170594819589
1743443162833,13:46:02.833,106,-1,1498.1684981685,1.88058608058608,35.9170594819589
1743443162853,13:46:02.853,106,-1,1491.57509157509,1.87912087912088,35.9170594819589
1743443162872,13:46:02.872,106,-1,1487.91208791209,1.87912087912088,35.9170594819589
1743443162892,13:46:02.892,106,-1,1482.78388278388,1.87912087912088,35.9170594819589
1743443162911,13:46:02.911,106,-1,1450.54945054945,1.87765567765568,35.9170594819589
1743443162931,13:46:02.931,106,-1,1401.4652014652,1.87912087912088,35.9170594819589
1743443162950,13:46:02.950,106,-1,1366.30036630037,1.88058608058608,35.9170594819589
1743443162970,13:46:02.970,106,-1,1341.39194139194,1.88058608058608,35.9170594819589
1743443162989,13:46:02.989,106,-1,1321.61172161172,1.88058608058608,35.9170594819589
1743443163009,13:46:03.009,106,-1,1315.75091575092,1.88205128205128,35.9170594819589
1743443163028,13:46:03.028,106,-1,1313.55311355311,1.88351648351648,35.9170594819589
1743443163048,13:46:03.048,106,-1,1303.2967032967,1.88351648351648,35.9170594819589
1743443163067,13:46:03.067,106,-1,1284.98168498168,1.88498168498169,35.9170594819589
