RawTimestamp,LocalTime,HR_Direct,HR_Buffered,PPG,GSR,Temperature
1743374326366,18:38:46.366,-1,-1,0,0.0373626373626372,26.4608428180218
1743374326386,18:38:46.386,-1,-1,0,0.0373626373626372,26.4608428180218
1743374326405,18:38:46.405,-1,-1,0,0.236910684671878,26.4608428180218
1743374326425,18:38:46.425,-1,-1,0,0.236910684671878,26.4608428180218
1743374326444,18:38:46.444,-1,-1,0,0.236910684671878,26.4608428180218
1743374326464,18:38:46.464,-1,-1,0,0.236910684671878,26.4608428180218
1743374326483,18:38:46.483,-1,-1,0,0.236910684671878,26.4608428180218
1743374326503,18:38:46.503,-1,-1,0,0.227182805580018,26.4608428180218
1743374326522,18:38:46.522,-1,-1,0,0.227182805580018,26.4608428180218
1743374326542,18:38:46.542,-1,-1,0,0.227182805580018,26.4608428180218
1743374326561,18:38:46.561,-1,-1,0,0.227182805580018,26.4608428180218
1743374326581,18:38:46.581,-1,-1,0,0.227182805580018,26.4608428180218
1743374326600,18:38:46.600,-1,-1,0,0.223443223443223,26.4608428180218
1743374326620,18:38:46.620,-1,-1,0,0.223443223443223,26.4608428180218
1743374326639,18:38:46.639,-1,-1,0,0.223443223443223,26.4608428180218
1743374326659,18:38:46.659,-1,-1,0,0.223443223443223,26.4608428180218
1743374326678,18:38:46.678,-1,-1,0,0.223443223443223,26.4608428180218
1743374326698,18:38:46.698,-1,-1,0,0.221778221778222,26.4608428180218
1743374326717,18:38:46.717,-1,-1,0,0.221778221778222,26.4608428180218
1743374326737,18:38:46.737,-1,-1,0,0.220890220890221,26.4608428180218
1743374326756,18:38:46.756,-1,-1,0,0.21955821955822,26.4608428180218
1743374326776,18:38:46.776,-1,-1,0,0.218226218226218,26.4608428180218
1743374326795,18:38:46.795,-1,-1,0,0.215562215562216,26.4608428180218
1743374326815,18:38:46.815,-1,-1,0,0.214674214674215,26.4608428180218
1743374326834,18:38:46.834,-1,-1,0,0.215562215562216,26.4608428180218
1743374326854,18:38:46.854,-1,-1,0,0.218226218226218,26.4608428180218
1743374326873,18:38:46.873,-1,-1,0,0.22044622044622,26.4608428180218
1743374326893,18:38:46.893,-1,-1,0,0.221334221334221,26.4608428180218
1743374326912,18:38:46.912,-1,-1,0,0.221334221334221,26.4608428180218
1743374326932,18:38:46.932,-1,-1,0,0.221334221334221,26.4608428180218
1743374326951,18:38:46.951,-1,-1,0,0.221778221778222,26.4608428180218
1743374326971,18:38:46.971,-1,-1,0,0.221778221778222,26.4608428180218
1743374326990,18:38:46.990,-1,-1,0,0.221778221778222,26.4608428180218
1743374327010,18:38:47.010,-1,-1,0,0.222222222222222,26.4608428180218
1743374327029,18:38:47.029,-1,-1,0,0.223110223110223,26.4608428180218
1743374327049,18:38:47.049,-1,-1,0,0.223554223554223,26.4608428180218
1743374327068,18:38:47.068,-1,-1,0,0.223998223998224,26.4608428180218
1743374327088,18:38:47.088,-1,-1,0,0.224886224886225,26.4608428180218
1743374327107,18:38:47.107,-1,-1,0,0.224886224886225,26.4608428180218
1743374327127,18:38:47.127,-1,-1,0,0.224442224442224,26.4608428180218
1743374327146,18:38:47.146,-1,-1,0,0.224886224886225,26.4608428180218
1743374327166,18:38:47.166,-1,-1,0,0.224442224442224,26.4608428180218
1743374327185,18:38:47.185,-1,-1,0,0.224886224886225,26.4608428180218
1743374327205,18:38:47.205,-1,-1,0,0.224886224886225,26.4608428180218
1743374327224,18:38:47.224,-1,-1,0,0.224442224442224,26.4608428180218
1743374327244,18:38:47.244,-1,-1,0,0.224442224442224,26.4608428180218
1743374327263,18:38:47.263,-1,-1,0,0.224442224442224,26.4608428180218
1743374327283,18:38:47.283,-1,-1,0,0.224442224442224,31.9548852880253
1743374327302,18:38:47.302,-1,-1,0,0.224442224442224,31.9548852880253
1743374327322,18:38:47.322,-1,-1,0,0.224442224442224,31.9548852880253
1743374327341,18:38:47.341,-1,-1,0,0.224442224442224,31.9548852880253
1743374327361,18:38:47.361,-1,-1,0,0.224886224886225,31.9548852880253
1743374327380,18:38:47.380,-1,-1,0,0.224886224886225,31.9548852880253
1743374327400,18:38:47.400,-1,-1,0,0.224886224886225,31.9548852880253
1743374327419,18:38:47.419,-1,-1,0,0.224886224886225,31.9548852880253
1743374327439,18:38:47.439,-1,-1,0,0.224442224442224,31.9548852880253
1743374327458,18:38:47.458,-1,-1,0,0.224442224442224,31.9548852880253
1743374327478,18:38:47.478,-1,-1,0,0.224442224442224,31.9548852880253
1743374327497,18:38:47.497,-1,-1,0,0.224442224442224,31.9548852880253
1743374327517,18:38:47.517,-1,-1,0,0.223998223998224,31.9548852880253
1743374327536,18:38:47.536,-1,-1,0,0.223554223554223,31.9548852880253
1743374327556,18:38:47.556,-1,-1,0,0.223554223554223,31.9548852880253
1743374327575,18:38:47.575,-1,-1,0,0.223554223554223,31.9548852880253
1743374327595,18:38:47.595,-1,-1,0,0.223110223110223,31.9548852880253
1743374327614,18:38:47.614,-1,-1,0,0.223110223110223,31.9548852880253
1743374327634,18:38:47.634,-1,-1,16.1172161172161,0.223554223554223,31.9548852880253
1743374327653,18:38:47.653,-1,-1,324.542124542124,0.223998223998224,31.9548852880253
1743374327673,18:38:47.673,-1,-1,653.479853479853,0.223998223998224,31.9548852880253
1743374327692,18:38:47.692,-1,-1,885.714285714286,0.224442224442224,31.9548852880253
1743374327712,18:38:47.712,-1,-1,1034.43223443223,0.224442224442224,31.9548852880253
1743374327731,18:38:47.731,-1,-1,1127.47252747253,0.224442224442224,31.9548852880253
1743374327751,18:38:47.751,-1,-1,1162.63736263736,0.224886224886225,31.9548852880253
1743374327770,18:38:47.770,-1,-1,1158.97435897436,0.224442224442224,31.9548852880253
1743374327790,18:38:47.790,-1,-1,1148.71794871795,0.224442224442224,31.9548852880253
1743374327809,18:38:47.809,-1,-1,1142.85714285714,0.224442224442224,31.9548852880253
1743374327829,18:38:47.829,-1,-1,1136.99633699634,0.223998223998224,31.9548852880253
1743374327848,18:38:47.848,-1,-1,1145.78754578755,0.223998223998224,31.9548852880253
1743374327868,18:38:47.868,-1,-1,1156.77655677656,0.223998223998224,31.9548852880253
1743374327887,18:38:47.887,-1,-1,1162.63736263736,0.223554223554223,31.9548852880253
1743374327907,18:38:47.907,-1,-1,1172.16117216117,0.223554223554223,31.9548852880253
1743374327926,18:38:47.926,-1,-1,1202.1978021978,0.222666222666223,31.9548852880253
1743374327946,18:38:47.946,-1,-1,1265.93406593407,0.223110223110223,31.9548852880253
1743374327965,18:38:47.965,-1,-1,1361.90476190476,0.223110223110223,31.9548852880253
1743374327985,18:38:47.985,-1,-1,1457.87545787546,0.222666222666223,31.9548852880253
1743374328004,18:38:48.004,-1,-1,1545.78754578755,0.222666222666223,31.9548852880253
1743374328024,18:38:48.024,-1,-1,1606.59340659341,0.221778221778222,31.9548852880253
1743374328043,18:38:48.043,-1,-1,1643.22344322344,0.221778221778222,31.9548852880253
1743374328063,18:38:48.063,-1,-1,1665.20146520146,0.220890220890221,31.9548852880253
1743374328082,18:38:48.082,-1,-1,1678.38827838828,0.21955821955822,31.9548852880253
1743374328102,18:38:48.102,-1,-1,1679.85347985348,0.216450216450216,31.9548852880253
1743374328121,18:38:48.121,-1,-1,1661.53846153846,0.214230214230214,31.9548852880253
1743374328141,18:38:48.141,-1,-1,1645.42124542125,0.212454212454212,31.9548852880253
1743374328160,18:38:48.160,-1,-1,1630.03663003663,0.211566211566211,31.9548852880253
1743374328180,18:38:48.180,-1,-1,1601.4652014652,0.212010212010212,31.9548852880253
1743374328199,18:38:48.199,-1,-1,1545.05494505494,0.212454212454212,31.9548852880253
1743374328219,18:38:48.219,-1,-1,1490.10989010989,0.212454212454212,31.9548852880253
1743374328238,18:38:48.238,-1,-1,1457.87545787546,0.212898212898213,31.9548852880253
1743374328258,18:38:48.258,-1,-1,1455.67765567766,0.213786213786214,31.9548852880253
1743374328277,18:38:48.277,-1,-1,1470.32967032967,0.214674214674215,31.9749054423301
1743374328297,18:38:48.297,-1,-1,1466.66666666667,0.216450216450216,31.9749054423301
1743374328316,18:38:48.316,-1,-1,1448.35164835165,0.217782217782218,31.9749054423301
1743374328336,18:38:48.336,-1,-1,1435.16483516484,0.218670218670219,31.9749054423301
1743374328355,18:38:48.355,-1,-1,1400.7326007326,0.21955821955822,31.9749054423301
1743374328375,18:38:48.375,-1,-1,1369.96336996337,0.222222222222222,31.9749054423301
1743374328394,18:38:48.394,-1,-1,1347.25274725275,0.233322233322233,31.9749054423301
1743374328414,18:38:48.414,-1,-1,1323.80952380952,0.246198246198246,31.9749054423301
1743374328433,18:38:48.433,-1,-1,1296.7032967033,0.259518259518259,31.9749054423301
1743374328453,18:38:48.453,-1,-1,1268.13186813187,0.274170274170274,31.9749054423301
1743374328472,18:38:48.472,-1,-1,1254.21245421245,0.305694305694306,31.9749054423301
1743374328492,18:38:48.492,-1,-1,1256.41025641026,0.311910311910312,31.9749054423301
1743374328511,18:38:48.511,-1,-1,1258.60805860806,0.312798312798313,31.9749054423301
1743374328531,18:38:48.531,-1,-1,1244.68864468864,0.311022311022311,31.9749054423301
1743374328550,18:38:48.550,-1,-1,1225.64102564103,0.317682317682318,31.9749054423301
1743374328570,18:38:48.570,-1,-1,1227.83882783883,0.323010323010323,31.9749054423301
1743374328589,18:38:48.589,-1,-1,1241.75824175824,0.323898323898324,31.9749054423301
1743374328609,18:38:48.609,-1,-1,1235.16483516484,0.324786324786325,31.9749054423301
1743374328628,18:38:48.628,-1,-1,1219.04761904762,0.324342324342324,31.9749054423301
1743374328648,18:38:48.648,-1,-1,1208.79120879121,0.323010323010323,31.9749054423301
1743374328667,18:38:48.667,-1,-1,1209.52380952381,0.321234321234321,31.9749054423301
1743374328687,18:38:48.687,-1,-1,1210.98901098901,0.317238317238317,31.9749054423301
1743374328706,18:38:48.706,-1,-1,1210.98901098901,0.315462315462315,31.9749054423301
1743374328726,18:38:48.726,-1,-1,1210.98901098901,0.315018315018315,31.9749054423301
1743374328745,18:38:48.745,-1,-1,1192.67399267399,0.31013431013431,31.9749054423301
1743374328765,18:38:48.765,-1,-1,1189.74358974359,0.30969030969031,31.9749054423301
1743374328784,18:38:48.784,-1,-1,1192.67399267399,0.311022311022311,31.9749054423301
1743374328804,18:38:48.804,-1,-1,1192.67399267399,0.311022311022311,31.9749054423301
1743374328823,18:38:48.823,-1,-1,1213.18681318681,0.326562326562327,31.9749054423301
1743374328843,18:38:48.843,-1,-1,1258.60805860806,0.342102342102342,31.9749054423301
1743374328862,18:38:48.862,-1,-1,1347.98534798535,0.351426351426351,31.9749054423301
1743374328882,18:38:48.882,-1,-1,1430.76923076923,0.341658341658342,31.9749054423301
1743374328901,18:38:48.901,-1,-1,1512.08791208791,0.340770340770341,31.9749054423301
1743374328921,18:38:48.921,-1,-1,1569.96336996337,0.355422355422355,31.9749054423301
1743374328940,18:38:48.940,-1,-1,1605.86080586081,0.356754356754357,31.9749054423301
1743374328960,18:38:48.960,-1,-1,1632.96703296703,0.35009435009435,31.9749054423301
1743374328979,18:38:48.979,-1,-1,1641.75824175824,0.345654345654346,31.9749054423301
1743374328999,18:38:48.999,-1,-1,1630.76923076923,0.343878343878344,31.9749054423301
1743374329018,18:38:49.018,-1,-1,1613.91941391941,0.347430347430347,31.9749054423301
1743374329038,18:38:49.038,-1,-1,1609.52380952381,0.350982350982351,31.9749054423301
1743374329057,18:38:49.057,-1,-1,1601.4652014652,0.353646353646354,31.9749054423301
1743374329077,18:38:49.077,-1,-1,1572.16117216117,0.358086358086358,31.9749054423301
1743374329096,18:38:49.096,-1,-1,1537.72893772894,0.361194361194361,31.9749054423301
1743374329116,18:38:49.116,-1,-1,1497.4358974359,0.362526362526363,31.9749054423301
1743374329135,18:38:49.135,-1,-1,1465.93406593407,0.362082362082362,31.9749054423301
1743374329155,18:38:49.155,-1,-1,1456.41025641026,0.362082362082362,31.9749054423301
1743374329174,18:38:49.174,-1,-1,1453.47985347985,0.362526362526363,31.9749054423301
1743374329194,18:38:49.194,-1,-1,1437.36263736264,0.364746364746365,31.9749054423301
1743374329213,18:38:49.213,-1,-1,1410.25641025641,0.366522366522366,31.9749054423301
1743374329233,18:38:49.233,-1,-1,1386.08058608059,0.368298368298368,31.9749054423301
1743374329252,18:38:49.252,-1,-1,1364.83516483516,0.37007437007437,31.9749054423301
1743374329272,18:38:49.272,-1,-1,1343.58974358974,0.374958374958375,32.0049354991643
1743374329291,18:38:49.291,-1,-1,1320.14652014652,0.376734376734377,32.0049354991643
1743374329311,18:38:49.311,-1,-1,1304.0293040293,0.379398379398379,32.0049354991643
1743374329330,18:38:49.330,-1,-1,1293.77289377289,0.383838383838384,32.0049354991643
1743374329350,18:38:49.350,-1,-1,1273.99267399267,0.386058386058386,32.0049354991643
1743374329369,18:38:49.369,-1,-1,1247.61904761905,0.388278388278388,32.0049354991643
1743374329389,18:38:49.389,-1,-1,1232.23443223443,0.397158397158397,32.0049354991643
1743374329408,18:38:49.408,-1,-1,1238.09523809524,0.41003441003441,32.0049354991643
1743374329428,18:38:49.428,-1,-1,1230.76923076923,0.418026418026418,32.0049354991643
1743374329447,18:38:49.447,-1,-1,1219.78021978022,0.422910422910423,32.0049354991643
1743374329467,18:38:49.467,-1,-1,1219.78021978022,0.425130425130425,32.0049354991643
1743374329486,18:38:49.486,-1,-1,1221.24542124542,0.426018426018426,32.0049354991643
1743374329506,18:38:49.506,-1,-1,1226.37362637363,0.426462426462426,32.0049354991643
1743374329525,18:38:49.525,-1,-1,1222.71062271062,0.429126429126429,32.0049354991643
1743374329545,18:38:49.545,-1,-1,1208.79120879121,0.435342435342435,32.0049354991643
1743374329564,18:38:49.564,-1,-1,1191.94139194139,0.438894438894439,32.0049354991643
1743374329584,18:38:49.584,-1,-1,1178.75457875458,0.441558441558441,32.0049354991643
1743374329603,18:38:49.603,-1,-1,1173.62637362637,0.443334443334443,32.0049354991643
1743374329623,18:38:49.623,-1,-1,1179.48717948718,0.445554445554445,32.0049354991643
1743374329642,18:38:49.642,-1,-1,1190.47619047619,0.446886446886447,32.0049354991643
1743374329662,18:38:49.662,-1,-1,1191.94139194139,0.447774447774448,32.0049354991643
1743374329681,18:38:49.681,-1,-1,1177.28937728938,0.449106449106449,32.0049354991643
1743374329701,18:38:49.701,-1,-1,1149.45054945055,0.44999444999445,32.0049354991643
1743374329720,18:38:49.720,-1,-1,1158.97435897436,0.450882450882451,32.0049354991643
1743374329740,18:38:49.740,-1,-1,1175.09157509158,0.451770451770452,32.0049354991643
1743374329759,18:38:49.759,-1,-1,1175.82417582418,0.452658452658453,32.0049354991643
1743374329779,18:38:49.779,-1,-1,1161.90476190476,0.453990453990454,32.0049354991643
1743374329798,18:38:49.798,-1,-1,1157.50915750916,0.455322455322455,32.0049354991643
1743374329818,18:38:49.818,-1,-1,1178.75457875458,0.456210456210456,32.0049354991643
1743374329837,18:38:49.837,-1,-1,1218.31501831502,0.457986457986458,32.0049354991643
1743374329857,18:38:49.857,-1,-1,1283.51648351648,0.458874458874459,32.0049354991643
1743374329876,18:38:49.876,-1,-1,1361.17216117216,0.46020646020646,32.0049354991643
1743374329896,18:38:49.896,-1,-1,1434.43223443223,0.461094461094461,32.0049354991643
1743374329915,18:38:49.915,-1,-1,1485.71428571429,0.461982461982462,32.0049354991643
1743374329935,18:38:49.935,-1,-1,1527.47252747253,0.462870462870463,32.0049354991643
1743374329954,18:38:49.954,-1,-1,1557.50915750916,0.463758463758464,32.0049354991643
1743374329974,18:38:49.974,-1,-1,1556.04395604396,0.464646464646465,32.0049354991643
1743374329993,18:38:49.993,-1,-1,1539.19413919414,0.465090465090465,32.0049354991643
1743374330013,18:38:50.013,-1,-1,1520.87912087912,0.465978465978466,32.0049354991643
1743374330032,18:38:50.032,-1,-1,1512.82051282051,0.466422466422466,32.0049354991643
1743374330052,18:38:50.052,-1,-1,1515.75091575092,0.466866466866467,32.0049354991643
1743374330071,18:38:50.071,-1,-1,1511.35531135531,0.466422466422466,32.0049354991643
1743374330091,18:38:50.091,-1,-1,1503.2967032967,0.465534465534465,32.0049354991643
1743374330110,18:38:50.110,-1,-1,1479.12087912088,0.465978465978466,32.0049354991643
1743374330130,18:38:50.130,-1,-1,1442.49084249084,0.466422466422466,32.0049354991643
1743374330149,18:38:50.149,-1,-1,1407.32600732601,0.467754467754468,32.0049354991643
1743374330169,18:38:50.169,-1,-1,1380.95238095238,0.468642468642469,32.0049354991643
1743374330188,18:38:50.188,-1,-1,1367.76556776557,0.469530469530469,32.0049354991643
1743374330208,18:38:50.208,-1,-1,1361.90476190476,0.47041847041847,32.0049354991643
1743374330227,18:38:50.227,-1,-1,1353.11355311355,0.470862470862471,32.0049354991643
1743374330247,18:38:50.247,-1,-1,1347.98534798535,0.471750471750472,32.0049354991643
1743374330266,18:38:50.266,-1,-1,1341.39194139194,0.472638472638473,32.0349653464509
1743374330286,18:38:50.286,-1,-1,1326.00732600733,0.472638472638473,32.0349653464509
1743374330305,18:38:50.305,-1,-1,1303.2967032967,0.473526473526473,32.0349653464509
1743374330325,18:38:50.325,-1,-1,1287.91208791209,0.474414474414474,32.0349653464509
1743374330344,18:38:50.344,-1,-1,1276.19047619048,0.474858474858475,32.0349653464509
1743374330364,18:38:50.364,-1,-1,1251.28205128205,0.475746475746476,32.0349653464509
1743374330383,18:38:50.383,-1,-1,1250.54945054945,0.476190476190476,32.0349653464509
1743374330403,18:38:50.403,-1,-1,1259.34065934066,0.476634476634477,32.0349653464509
1743374330422,18:38:50.422,-1,-1,1263.00366300366,0.477522477522477,32.0349653464509
1743374330442,18:38:50.442,-1,-1,1254.21245421245,0.478410478410478,32.0349653464509
1743374330461,18:38:50.461,-1,-1,1229.30402930403,0.479298479298479,32.0349653464509
1743374330481,18:38:50.481,-1,-1,1202.1978021978,0.48018648018648,32.0349653464509
1743374330500,18:38:50.500,-1,-1,1189.74358974359,0.480630480630481,32.0349653464509
1743374330520,18:38:50.520,-1,-1,1197.0695970696,0.481074481074481,32.0349653464509
1743374330539,18:38:50.539,-1,-1,1197.8021978022,0.481518481518481,32.0349653464509
1743374330559,18:38:50.559,-1,-1,1186.81318681319,0.481962481962482,32.0349653464509
1743374330578,18:38:50.578,-1,-1,1178.75457875458,0.482406482406482,32.0349653464509
1743374330598,18:38:50.598,-1,-1,1180.21978021978,0.482850482850483,32.0349653464509
1743374330617,18:38:50.617,-1,-1,1185.34798534799,0.483294483294483,32.0349653464509
1743374330637,18:38:50.637,-1,-1,1190.47619047619,0.483738483738484,32.0349653464509
1743374330656,18:38:50.656,-1,-1,1189.74358974359,0.484182484182484,32.0349653464509
1743374330676,18:38:50.676,-1,-1,1195.6043956044,0.484182484182484,32.0349653464509
1743374330695,18:38:50.695,-1,-1,1212.45421245421,0.485070485070485,32.0349653464509
1743374330715,18:38:50.715,-1,-1,1212.45421245421,0.485070485070485,32.0349653464509
1743374330734,18:38:50.734,-1,-1,1200.7326007326,0.485958485958486,32.0349653464509
1743374330754,18:38:50.754,-1,-1,1196.336996337,0.485958485958486,32.0349653464509
1743374330773,18:38:50.773,-1,-1,1195.6043956044,0.486402486402486,32.0349653464509
1743374330793,18:38:50.793,-1,-1,1212.45421245421,0.486402486402486,32.0349653464509
1743374330812,18:38:50.812,-1,-1,1247.61904761905,0.486402486402486,32.0349653464509
1743374330832,18:38:50.832,-1,-1,1290.10989010989,0.486402486402486,32.0349653464509
1743374330851,18:38:50.851,-1,-1,1334.79853479853,0.487290487290487,32.0349653464509
1743374330871,18:38:50.871,-1,-1,1375.82417582418,0.488622488622488,32.0349653464509
1743374330890,18:38:50.890,-1,-1,1424.17582417582,0.489066489066489,32.0349653464509
1743374330910,18:38:50.910,-1,-1,1464.46886446886,0.48995448995449,32.0349653464509
1743374330929,18:38:50.929,-1,-1,1481.31868131868,0.49039849039849,32.0349653464509
1743374330949,18:38:50.949,-1,-1,1473.26007326007,0.491286491286491,32.0349653464509
1743374330968,18:38:50.968,-1,-1,1461.53846153846,0.491730491730492,32.0349653464509
1743374330988,18:38:50.988,-1,-1,1459.34065934066,0.491730491730492,32.0349653464509
1743374331007,18:38:51.007,-1,-1,1458.60805860806,0.491730491730492,32.0349653464509
1743374331027,18:38:51.027,-1,-1,1441.02564102564,0.492174492174492,32.0349653464509
1743374331046,18:38:51.046,-1,-1,1424.17582417582,0.492618492618492,32.0349653464509
1743374331066,18:38:51.066,-1,-1,1412.45421245421,0.493062493062493,32.0349653464509
1743374331085,18:38:51.085,-1,-1,1400.7326007326,0.493506493506494,32.0349653464509
1743374331105,18:38:51.105,-1,-1,1386.08058608059,0.493506493506494,32.0349653464509
1743374331124,18:38:51.124,-1,-1,1385.34798534799,0.493950493950494,32.0349653464509
1743374331144,18:38:51.144,-1,-1,1369.96336996337,0.494394494394494,32.0349653464509
1743374331163,18:38:51.163,-1,-1,1355.31135531136,0.494838494838495,32.0349653464509
1743374331183,18:38:51.183,-1,-1,1347.25274725275,0.495282495282495,32.0349653464509
1743374331202,18:38:51.202,-1,-1,1345.78754578755,0.495282495282495,32.0349653464509
1743374331222,18:38:51.222,-1,-1,1351.64835164835,0.495726495726496,32.0349653464509
1743374331241,18:38:51.241,-1,-1,1341.39194139194,0.496170496170496,32.0349653464509
1743374331261,18:38:51.261,-1,-1,1320.14652014652,0.496614496614497,32.0549851282267
1743374331280,18:38:51.280,-1,-1,1312.08791208791,0.496614496614497,32.0549851282267
1743374331300,18:38:51.300,-1,-1,1313.55311355311,0.497058497058497,32.0549851282267
1743374331319,18:38:51.319,-1,-1,1302.5641025641,0.497502497502497,32.0549851282267
1743374331339,18:38:51.339,-1,-1,1280.58608058608,0.497502497502497,32.0549851282267
1743374331358,18:38:51.358,-1,-1,1266.66666666667,0.497946497946498,32.0549851282267
1743374331378,18:38:51.378,-1,-1,1254.94505494505,0.498834498834499,32.0549851282267
1743374331397,18:38:51.397,-1,-1,1246.15384615385,0.499278499278499,32.0549851282267
1743374331417,18:38:51.417,-1,-1,1240.29304029304,0.4997224997225,32.0549851282267
1743374331436,18:38:51.436,-1,-1,1238.09523809524,0.5001665001665,32.0549851282267
1743374331456,18:38:51.456,-1,-1,1241.75824175824,0.500610500610501,32.0549851282267
1743374331475,18:38:51.475,-1,-1,1250.54945054945,0.501054501054501,32.0549851282267
1743374331495,18:38:51.495,-1,-1,1254.94505494505,0.501942501942502,32.0549851282267
1743374331514,18:38:51.514,-1,-1,1258.60805860806,0.502386502386502,32.0549851282267
1743374331534,18:38:51.534,-1,-1,1252.01465201465,0.502830502830503,32.0549851282267
1743374331553,18:38:51.553,-1,-1,1241.02564102564,0.503274503274503,32.0549851282267
1743374331573,18:38:51.573,-1,-1,1232.96703296703,0.503274503274503,32.0549851282267
1743374331592,18:38:51.592,-1,-1,1224.17582417582,0.503718503718504,32.0549851282267
1743374331612,18:38:51.612,-1,-1,1229.30402930403,0.504162504162504,32.0549851282267
1743374331631,18:38:51.631,-1,-1,1227.83882783883,0.504606504606505,32.0549851282267
1743374331651,18:38:51.651,-1,-1,1243.95604395604,0.505050505050505,32.0549851282267
1743374331670,18:38:51.670,-1,-1,1296.7032967033,0.505938505938506,32.0549851282267
1743374331690,18:38:51.690,-1,-1,1359.70695970696,0.506382506382506,32.0549851282267
1743374331709,18:38:51.709,-1,-1,1404.3956043956,0.506826506826507,32.0549851282267
1743374331729,18:38:51.729,-1,-1,1427.83882783883,0.507270507270507,32.0549851282267
1743374331748,18:38:51.748,-1,-1,1449.81684981685,0.507714507714508,32.0549851282267
1743374331768,18:38:51.768,-1,-1,1452.01465201465,0.508158508158508,32.0549851282267
1743374331787,18:38:51.787,-1,-1,1452.74725274725,0.508602508602509,32.0549851282267
1743374331807,18:38:51.807,-1,-1,1452.01465201465,0.509046509046509,32.0549851282267
1743374331826,18:38:51.826,-1,-1,1441.75824175824,0.509490509490509,32.0549851282267
1743374331846,18:38:51.846,-1,-1,1440.29304029304,0.50993450993451,32.0549851282267
1743374331865,18:38:51.865,-1,-1,1438.82783882784,0.510822510822511,32.0549851282267
1743374331885,18:38:51.885,-1,-1,1427.10622710623,0.51037851037851,32.0549851282267
1743374331904,18:38:51.904,-1,-1,1408.79120879121,0.51037851037851,32.0549851282267
1743374331924,18:38:51.924,-1,-1,1394.13919413919,0.510822510822511,32.0549851282267
1743374331943,18:38:51.943,-1,-1,1385.34798534799,0.511266511266511,32.0549851282267
1743374331963,18:38:51.963,-1,-1,1369.23076923077,0.512154512154512,32.0549851282267
1743374331982,18:38:51.982,-1,-1,1364.83516483516,0.512154512154512,32.0549851282267
1743374332002,18:38:52.002,-1,-1,1372.89377289377,0.511710511710512,32.0549851282267
1743374332021,18:38:52.021,-1,-1,1372.16117216117,0.51037851037851,32.0549851282267
1743374332041,18:38:52.041,-1,-1,1362.63736263736,0.508602508602509,32.0549851282267
1743374332060,18:38:52.060,-1,-1,1338.46153846154,0.504606504606505,32.0549851282267
1743374332080,18:38:52.080,-1,-1,1338.46153846154,0.500610500610501,32.0549851282267
1743374332099,18:38:52.099,-1,-1,1339.19413919414,0.4997224997225,32.0549851282267
1743374332119,18:38:52.119,-1,-1,1325.27472527473,0.4997224997225,32.0549851282267
1743374332138,18:38:52.138,-1,-1,1306.95970695971,0.4997224997225,32.0549851282267
1743374332158,18:38:52.158,-1,-1,1301.8315018315,0.501942501942502,32.0549851282267
1743374332177,18:38:52.177,-1,-1,1302.5641025641,0.502386502386502,32.0549851282267
1743374332197,18:38:52.197,-1,-1,1301.0989010989,0.501054501054501,32.0549851282267
1743374332216,18:38:52.216,-1,-1,1295.9706959707,0.498834498834499,32.0549851282267
1743374332236,18:38:52.236,-1,-1,1294.50549450549,0.498390498390498,32.0549851282267
1743374332255,18:38:52.255,-1,-1,1290.84249084249,0.497946497946498,32.0800097244792
1743374332275,18:38:52.275,-1,-1,1296.7032967033,0.497946497946498,32.0800097244792
1743374332294,18:38:52.294,-1,-1,1294.50549450549,0.467310467310467,32.0800097244792
1743374332314,18:38:52.314,-1,-1,1296.7032967033,0.44999444999445,32.0800097244792
1743374332333,18:38:52.333,-1,-1,1293.04029304029,0.449106449106449,32.0800097244792
1743374332353,18:38:52.353,-1,-1,1285.71428571429,0.447774447774448,32.0800097244792
1743374332372,18:38:52.372,-1,-1,1286.44688644689,0.444666444666445,32.0800097244792
1743374332392,18:38:52.392,-1,-1,1293.77289377289,0.440670440670441,32.0800097244792
1743374332411,18:38:52.411,-1,-1,1327.47252747253,0.436230436230436,32.0800097244792
1743374332431,18:38:52.431,-1,-1,1372.89377289377,0.427350427350427,32.0800097244792
1743374332450,18:38:52.450,-1,-1,1407.32600732601,0.406482406482406,32.0800097244792
1743374332470,18:38:52.470,-1,-1,1426.37362637363,0.397158397158397,32.0800097244792
1743374332489,18:38:52.489,-1,-1,1454.21245421245,0.395382395382395,32.0800097244792
1743374332509,18:38:52.509,-1,-1,1484.24908424908,0.395382395382395,32.0800097244792
1743374332528,18:38:52.528,-1,-1,1501.0989010989,0.394938394938395,32.0800097244792
1743374332548,18:38:52.548,-1,-1,1521.61172161172,0.394494394494394,32.0800097244792
1743374332567,18:38:52.567,-1,-1,1544.32234432234,0.392718392718393,32.0800097244792
1743374332587,18:38:52.587,-1,-1,1570.69597069597,0.389166389166389,32.0800097244792
1743374332606,18:38:52.606,-1,-1,1580.21978021978,0.386502386502386,32.0800097244792
1743374332626,18:38:52.626,-1,-1,1567.76556776557,0.384282384282384,32.0800097244792
1743374332645,18:38:52.645,-1,-1,1540.65934065934,0.376734376734377,32.0800097244792
1743374332665,18:38:52.665,-1,-1,1511.35531135531,0.368298368298368,32.0800097244792
1743374332684,18:38:52.684,-1,-1,1479.85347985348,0.342102342102342,32.0800097244792
1743374332704,18:38:52.704,-1,-1,1452.01465201465,0.338106338106338,32.0800097244792
1743374332723,18:38:52.723,-1,-1,1427.10622710623,0.336330336330336,32.0800097244792
1743374332743,18:38:52.743,-1,-1,1428.57142857143,0.338106338106338,32.0800097244792
1743374332762,18:38:52.762,-1,-1,1435.16483516484,0.338550338550339,32.0800097244792
1743374332782,18:38:52.782,-1,-1,1441.75824175824,0.339438339438339,32.0800097244792
1743374332801,18:38:52.801,-1,-1,1443.22344322344,0.33988233988234,32.0800097244792
1743374332821,18:38:52.821,-1,-1,1444.68864468864,0.339438339438339,32.0800097244792
1743374332840,18:38:52.840,-1,-1,1438.09523809524,0.338994338994339,32.0800097244792
1743374332860,18:38:52.860,-1,-1,1422.71062271062,0.34032634032634,32.0800097244792
1743374332879,18:38:52.879,-1,-1,1416.11721611722,0.34032634032634,32.0800097244792
1743374332899,18:38:52.899,-1,-1,1411.72161172161,0.341658341658342,32.0800097244792
1743374332918,18:38:52.918,-1,-1,1378.75457875458,0.341214341214341,32.0800097244792
1743374332938,18:38:52.938,-1,-1,1334.79853479853,0.342990342990343,32.0800097244792
1743374332957,18:38:52.957,-1,-1,1318.68131868132,0.340770340770341,32.0800097244792
1743374332977,18:38:52.977,-1,-1,1337.72893772894,0.333666333666334,32.0800097244792
1743374332996,18:38:52.996,-1,-1,1351.64835164835,0.331002331002331,32.0800097244792
1743374333016,18:38:53.016,-1,-1,1360.43956043956,0.331890331890332,32.0800097244792
1743374333035,18:38:53.035,-1,-1,1367.03296703297,0.336330336330336,32.0800097244792
1743374333055,18:38:53.055,-1,-1,1355.31135531136,0.33988233988234,32.0800097244792
1743374333074,18:38:53.074,-1,-1,1337.72893772894,0.341214341214341,32.0800097244792
1743374333094,18:38:53.094,-1,-1,1330.40293040293,0.342102342102342,32.0800097244792
1743374333113,18:38:53.113,-1,-1,1330.40293040293,0.342102342102342,32.0800097244792
1743374333133,18:38:53.133,-1,-1,1344.32234432234,0.342102342102342,32.0800097244792
1743374333152,18:38:53.152,-1,-1,1397.0695970696,0.342546342546343,32.0800097244792
1743374333172,18:38:53.172,-1,-1,1473.99267399267,0.340770340770341,32.0800097244792
1743374333191,18:38:53.191,-1,-1,1553.84615384615,0.342102342102342,32.0800097244792
1743374333211,18:38:53.211,-1,-1,1616.11721611722,0.344322344322344,32.0800097244792
1743374333230,18:38:53.230,-1,-1,1671.79487179487,0.345654345654346,32.0800097244792
1743374333250,18:38:53.250,-1,-1,1719.41391941392,0.347874347874348,32.1150439147605
1743374333269,18:38:53.269,-1,-1,1759.70695970696,0.34965034965035,32.1150439147605
1743374333289,18:38:53.289,-1,-1,1780.21978021978,0.350538350538351,32.1150439147605
1743374333308,18:38:53.308,-1,-1,1800.7326007326,0.351426351426351,32.1150439147605
1743374333328,18:38:53.328,-1,-1,1808.79120879121,0.352314352314352,32.1150439147605
1743374333347,18:38:53.347,-1,-1,1810.25641025641,0.352314352314352,32.1150439147605
1743374333367,18:38:53.367,-1,-1,1809.52380952381,0.352314352314352,32.1150439147605
1743374333386,18:38:53.386,-1,-1,1798.5347985348,0.352758352758353,32.1150439147605
1743374333406,18:38:53.406,-1,-1,1767.03296703297,0.352758352758353,32.1150439147605
1743374333425,18:38:53.425,-1,-1,1717.94871794872,0.352314352314352,32.1150439147605
1743374333445,18:38:53.445,-1,-1,1661.53846153846,0.350982350982351,32.1150439147605
1743374333464,18:38:53.464,-1,-1,1621.24542124542,0.350538350538351,32.1150439147605
1743374333484,18:38:53.484,-1,-1,1604.3956043956,0.35009435009435,32.1150439147605
1743374333503,18:38:53.503,-1,-1,1602.9304029304,0.35009435009435,32.1150439147605
1743374333523,18:38:53.523,-1,-1,1587.54578754579,0.352314352314352,32.1150439147605
1743374333542,18:38:53.542,-1,-1,1577.28937728938,0.353646353646354,32.1150439147605
1743374333562,18:38:53.562,-1,-1,1560.43956043956,0.354090354090354,32.1150439147605
1743374333581,18:38:53.581,-1,-1,1553.84615384615,0.354090354090354,32.1150439147605
1743374333601,18:38:53.601,-1,-1,1528.93772893773,0.353646353646354,32.1150439147605
1743374333620,18:38:53.620,-1,-1,1484.98168498168,0.353646353646354,32.1150439147605
1743374333640,18:38:53.640,-1,-1,1450.54945054945,0.353202353202353,32.1150439147605
1743374333659,18:38:53.659,-1,-1,1425.64102564103,0.351426351426351,32.1150439147605
1743374333679,18:38:53.679,-1,-1,1415.38461538462,0.349206349206349,32.1150439147605
1743374333698,18:38:53.698,-1,-1,1425.64102564103,0.348318348318348,32.1150439147605
1743374333718,18:38:53.718,-1,-1,1421.97802197802,0.347430347430347,32.1150439147605
1743374333737,18:38:53.737,-1,-1,1400,0.345210345210345,32.1150439147605
1743374333757,18:38:53.757,-1,-1,1378.02197802198,0.342546342546343,32.1150439147605
1743374333776,18:38:53.776,-1,-1,1349.45054945055,0.341214341214341,32.1150439147605
1743374333796,18:38:53.796,-1,-1,1331.13553113553,0.341214341214341,32.1150439147605
1743374333815,18:38:53.815,-1,-1,1311.35531135531,0.342546342546343,32.1150439147605
1743374333835,18:38:53.835,-1,-1,1298.1684981685,0.342546342546343,32.1150439147605
1743374333854,18:38:53.854,-1,-1,1309.89010989011,0.340770340770341,32.1150439147605
1743374333874,18:38:53.874,-1,-1,1314.28571428571,0.337662337662338,32.1150439147605
1743374333894,18:38:53.893,-1,-1,1306.22710622711,0.336330336330336,32.1150439147605
1743374333913,18:38:53.913,-1,-1,1283.51648351648,0.337218337218337,32.1150439147605
1743374333933,18:38:53.932,-1,-1,1282.78388278388,0.337662337662338,32.1150439147605
1743374333952,18:38:53.952,-1,-1,1291.57509157509,0.337218337218337,32.1150439147605
1743374333972,18:38:53.971,-1,-1,1289.37728937729,0.337218337218337,32.1150439147605
1743374333991,18:38:53.991,-1,-1,1271.06227106227,0.338106338106338,32.1150439147605
1743374334011,18:38:54.011,-1,-1,1250.54945054945,0.339438339438339,32.1150439147605
1743374334030,18:38:54.030,-1,-1,1241.02564102564,0.33988233988234,32.1150439147605
1743374334050,18:38:54.050,-1,-1,1247.61904761905,0.34032634032634,32.1150439147605
1743374334069,18:38:54.069,-1,-1,1257.87545787546,0.341658341658342,32.1150439147605
1743374334089,18:38:54.089,-1,-1,1263.73626373626,0.343434343434343,32.1150439147605
1743374334108,18:38:54.108,-1,-1,1246.88644688645,0.344322344322344,32.1150439147605
1743374334128,18:38:54.128,-1,-1,1234.43223443223,0.344766344766345,32.1150439147605
1743374334147,18:38:54.147,-1,-1,1232.96703296703,0.344766344766345,32.1150439147605
1743374334167,18:38:54.167,-1,-1,1262.27106227106,0.343434343434343,32.1150439147605
1743374334186,18:38:54.186,-1,-1,1340.65934065934,0.338994338994339,32.1150439147605
1743374334206,18:38:54.206,-1,-1,1455.67765567766,0.334554334554335,32.1150439147605
1743374334225,18:38:54.225,-1,-1,1582.41758241758,0.332778332778333,32.1150439147605
1743374334245,18:38:54.245,-1,-1,1695.2380952381,0.331890331890332,32.1350633240072
1743374334264,18:38:54.264,-1,-1,1770.69597069597,0.332334332334332,32.1350633240072
1743374334284,18:38:54.284,-1,-1,1827.83882783883,0.332334332334332,32.1350633240072
1743374334303,18:38:54.303,-1,-1,1868.86446886447,0.332778332778333,32.1350633240072
1743374334323,18:38:54.323,-1,-1,1893.04029304029,0.332778332778333,32.1350633240072
1743374334342,18:38:54.342,-1,-1,1900.3663003663,0.333666333666334,32.1350633240072
1743374334362,18:38:54.362,-1,-1,1902.5641025641,0.333666333666334,32.1350633240072
1743374334381,18:38:54.381,-1,-1,1893.04029304029,0.333666333666334,32.1350633240072
1743374334401,18:38:54.401,-1,-1,1873.26007326007,0.333222333222333,32.1350633240072
1743374334420,18:38:54.420,-1,-1,1849.08424908425,0.333222333222333,32.1350633240072
1743374334440,18:38:54.440,-1,-1,1820.51282051282,0.332778332778333,32.1350633240072
1743374334459,18:38:54.459,-1,-1,1788.27838827839,0.333222333222333,32.1350633240072
1743374334479,18:38:54.479,-1,-1,1744.32234432234,0.332778332778333,32.1350633240072
1743374334498,18:38:54.498,-1,-1,1694.50549450549,0.331446331446331,32.1350633240072
1743374334518,18:38:54.518,-1,-1,1649.08424908425,0.330558330558331,32.1350633240072
1743374334537,18:38:54.537,-1,-1,1610.98901098901,0.330558330558331,32.1350633240072
1743374334557,18:38:54.557,-1,-1,1599.2673992674,0.331002331002331,32.1350633240072
1743374334576,18:38:54.576,-1,-1,1587.54578754579,0.331002331002331,32.1350633240072
1743374334596,18:38:54.596,-1,-1,1563.36996336996,0.331002331002331,32.1350633240072
1743374334615,18:38:54.615,-1,-1,1538.46153846154,0.331002331002331,32.1350633240072
1743374334635,18:38:54.635,-1,-1,1512.08791208791,0.331446331446331,32.1350633240072
1743374334654,18:38:54.654,-1,-1,1482.05128205128,0.331446331446331,32.1350633240072
1743374334674,18:38:54.674,-1,-1,1460.80586080586,0.331002331002331,32.1350633240072
1743374334693,18:38:54.693,-1,-1,1425.64102564103,0.331890331890332,32.1350633240072
1743374334713,18:38:54.713,-1,-1,1397.8021978022,0.332334332334332,32.1350633240072
1743374334732,18:38:54.732,-1,-1,1390.47619047619,0.332778332778333,32.1350633240072
1743374334752,18:38:54.752,-1,-1,1374.35897435897,0.332778332778333,32.1350633240072
1743374334771,18:38:54.771,-1,-1,1352.38095238095,0.333222333222333,32.1350633240072
1743374334791,18:38:54.791,-1,-1,1336.26373626374,0.333666333666334,32.1350633240072
1743374334810,18:38:54.810,-1,-1,1331.13553113553,0.334110334110334,32.1350633240072
1743374334830,18:38:54.830,-1,-1,1306.22710622711,0.334554334554335,32.1350633240072
1743374334849,18:38:54.849,-1,-1,1284.24908424908,0.334554334554335,32.1350633240072
1743374334869,18:38:54.869,59,-1,1276.19047619048,0.334110334110334,32.1350633240072
1743374334888,18:38:54.888,59,-1,1266.66666666667,0.334110334110334,32.1350633240072
1743374334908,18:38:54.908,59,-1,1268.86446886447,0.335442335442335,32.1350633240072
1743374334927,18:38:54.927,59,-1,1265.20146520147,0.335886335886336,32.1350633240072
1743374334947,18:38:54.947,59,-1,1257.87545787546,0.334110334110334,32.1350633240072
1743374334966,18:38:54.966,59,-1,1241.75824175824,0.334110334110334,32.1350633240072
1743374334986,18:38:54.986,59,-1,1237.36263736264,0.332778332778333,32.1350633240072
1743374335005,18:38:55.005,59,-1,1235.16483516484,0.32967032967033,32.1350633240072
1743374335025,18:38:55.025,59,-1,1229.30402930403,0.327450327450327,32.1350633240072
1743374335044,18:38:55.044,59,-1,1221.97802197802,0.326118326118326,32.1350633240072
1743374335064,18:38:55.064,59,-1,1216.11721611722,0.326562326562327,32.1350633240072
1743374335083,18:38:55.083,59,-1,1200.7326007326,0.327006327006327,32.1350633240072
1743374335103,18:38:55.103,59,-1,1203.663003663,0.327006327006327,32.1350633240072
1743374335122,18:38:55.122,59,-1,1198.5347985348,0.327894327894328,32.1350633240072
1743374335142,18:38:55.142,59,-1,1204.3956043956,0.328338328338328,32.1350633240072
1743374335161,18:38:55.161,59,-1,1216.84981684982,0.328782328782329,32.1350633240072
1743374335181,18:38:55.181,59,-1,1227.10622710623,0.328782328782329,32.1350633240072
1743374335200,18:38:55.200,59,-1,1234.43223443223,0.329226329226329,32.1350633240072
1743374335220,18:38:55.220,59,-1,1252.74725274725,0.329226329226329,32.1350633240072
1743374335239,18:38:55.239,59,-1,1312.82051282051,0.329226329226329,32.1550826401217
1743374335259,18:38:55.259,59,-1,1399.2673992674,0.329226329226329,32.1550826401217
1743374335278,18:38:55.278,59,-1,1504.7619047619,0.329226329226329,32.1550826401217
1743374335298,18:38:55.298,59,-1,1602.1978021978,0.329226329226329,32.1550826401217
1743374335317,18:38:55.317,59,-1,1671.79487179487,0.329226329226329,32.1550826401217
1743374335337,18:38:55.337,59,-1,1712.82051282051,0.328338328338328,32.1550826401217
1743374335356,18:38:55.356,59,-1,1731.86813186813,0.327450327450327,32.1550826401217
1743374335376,18:38:55.376,59,-1,1739.92673992674,0.327006327006327,32.1550826401217
1743374335395,18:38:55.395,59,-1,1739.19413919414,0.327006327006327,32.1550826401217
1743374335415,18:38:55.415,59,-1,1740.65934065934,0.325230325230325,32.1550826401217
1743374335434,18:38:55.434,59,-1,1730.40293040293,0.324786324786325,32.1550826401217
1743374335454,18:38:55.454,59,-1,1722.34432234432,0.324786324786325,32.1550826401217
1743374335473,18:38:55.473,59,-1,1698.9010989011,0.324786324786325,32.1550826401217
1743374335493,18:38:55.493,59,-1,1660.07326007326,0.324786324786325,32.1550826401217
1743374335512,18:38:55.512,59,-1,1613.18681318681,0.325230325230325,32.1550826401217
1743374335532,18:38:55.532,59,-1,1556.04395604396,0.323898323898324,32.1550826401217
1743374335551,18:38:55.551,59,-1,1501.0989010989,0.322122322122322,32.1550826401217
1743374335571,18:38:55.571,59,-1,1453.47985347985,0.321234321234321,32.1550826401217
1743374335590,18:38:55.590,59,-1,1442.49084249084,0.32034632034632,32.1550826401217
1743374335610,18:38:55.610,59,-1,1437.36263736264,0.318126318126318,32.1550826401217
1743374335629,18:38:55.629,59,-1,1428.57142857143,0.315018315018315,32.1550826401217
1743374335649,18:38:55.649,59,-1,1421.24542124542,0.313242313242313,32.1550826401217
1743374335668,18:38:55.668,59,-1,1405.86080586081,0.312798312798313,32.1550826401217
1743374335688,18:38:55.688,59,-1,1386.08058608059,0.312354312354312,32.1550826401217
1743374335707,18:38:55.707,63,-1,1364.83516483516,0.311022311022311,32.1550826401217
1743374335727,18:38:55.727,63,-1,1340.65934065934,0.31013431013431,32.1550826401217
1743374335746,18:38:55.746,63,-1,1315.01831501831,0.30969030969031,32.1550826401217
1743374335766,18:38:55.766,63,-1,1291.57509157509,0.305250305250305,32.1550826401217
1743374335785,18:38:55.785,63,-1,1275.45787545788,0.302142302142302,32.1550826401217
1743374335805,18:38:55.805,63,-1,1265.20146520147,0.301254301254301,32.1550826401217
1743374335824,18:38:55.824,63,-1,1238.82783882784,0.300810300810301,32.1550826401217
1743374335844,18:38:55.844,63,-1,1217.58241758242,0.301698301698302,32.1550826401217
1743374335863,18:38:55.863,63,-1,1210.25641025641,0.303030303030303,32.1550826401217
1743374335883,18:38:55.883,63,-1,1213.91941391941,0.303030303030303,32.1550826401217
1743374335902,18:38:55.902,63,-1,1219.04761904762,0.303030303030303,32.1550826401217
1743374335922,18:38:55.922,63,-1,1217.58241758242,0.303030303030303,32.1550826401217
1743374335941,18:38:55.941,63,-1,1204.3956043956,0.301254301254301,32.1550826401217
1743374335961,18:38:55.961,63,-1,1183.88278388278,0.301698301698302,32.1550826401217
1743374335980,18:38:55.980,63,-1,1163.36996336996,0.302142302142302,32.1550826401217
1743374336000,18:38:56.000,63,-1,1154.57875457875,0.301254301254301,32.1550826401217
1743374336019,18:38:56.019,63,-1,1165.56776556777,0.3003663003663,32.1550826401217
1743374336039,18:38:56.039,63,-1,1188.27838827839,0.298590298590299,32.1550826401217
1743374336058,18:38:56.058,63,-1,1204.3956043956,0.289266289266289,32.1550826401217
1743374336078,18:38:56.078,63,-1,1212.45421245421,0.278166278166278,32.1550826401217
1743374336097,18:38:56.097,63,-1,1203.663003663,0.274170274170274,32.1550826401217
1743374336117,18:38:56.117,63,-1,1200.7326007326,0.277278277278277,32.1550826401217
1743374336136,18:38:56.136,63,-1,1210.25641025641,0.279054279054279,32.1550826401217
1743374336156,18:38:56.156,63,-1,1210.25641025641,0.279054279054279,32.1550826401217
1743374336175,18:38:56.175,63,-1,1184.61538461538,0.277278277278277,32.1550826401217
1743374336195,18:38:56.195,63,-1,1152.38095238095,0.275946275946276,32.1550826401217
1743374336214,18:38:56.214,63,-1,1149.45054945055,0.269286269286269,32.1550826401217
1743374336234,18:38:56.234,63,-1,1169.96336996337,0.25996225996226,32.1801066542976
1743374336253,18:38:56.253,63,-1,1208.79120879121,0.254190254190254,32.1801066542976
1743374336273,18:38:56.273,63,-1,1254.94505494505,0.251970251970252,32.1801066542976
1743374336292,18:38:56.292,63,-1,1308.42490842491,0.252414252414252,32.1801066542976
1743374336312,18:38:56.312,63,-1,1364.83516483516,0.253746253746254,32.1801066542976
1743374336331,18:38:56.331,63,-1,1430.03663003663,0.254634254634255,32.1801066542976
1743374336351,18:38:56.351,63,-1,1484.24908424908,0.255078255078255,32.1801066542976
1743374336370,18:38:56.370,63,-1,1517.94871794872,0.255522255522255,32.1801066542976
1743374336390,18:38:56.390,63,-1,1520.14652014652,0.255966255966256,32.1801066542976
1743374336409,18:38:56.409,63,-1,1512.82051282051,0.256410256410256,32.1801066542976
1743374336429,18:38:56.429,63,-1,1501.8315018315,0.263070263070263,32.1801066542976
1743374336448,18:38:56.448,63,-1,1498.9010989011,0.263070263070263,32.1801066542976
1743374336468,18:38:56.468,63,-1,1493.77289377289,0.265290265290265,32.1801066542976
1743374336487,18:38:56.487,63,-1,1498.1684981685,0.263958263958264,32.1801066542976
1743374336507,18:38:56.507,72,-1,1480.58608058608,0.266178266178266,32.1801066542976
1743374336526,18:38:56.526,72,-1,1438.82783882784,0.267066267066267,32.1801066542976
1743374336546,18:38:56.546,72,-1,1393.40659340659,0.267954267954268,32.1801066542976
1743374336565,18:38:56.565,72,-1,1366.30036630037,0.267954267954268,32.1801066542976
1743374336585,18:38:56.585,72,-1,1367.76556776557,0.268398268398268,32.1801066542976
1743374336604,18:38:56.604,72,-1,1353.11355311355,0.269286269286269,32.1801066542976
1743374336624,18:38:56.624,72,-1,1334.06593406593,0.26973026973027,32.1801066542976
1743374336643,18:38:56.643,72,-1,1331.13553113553,0.27017427017427,32.1801066542976
1743374336663,18:38:56.663,72,-1,1339.19413919414,0.27017427017427,32.1801066542976
1743374336682,18:38:56.682,72,-1,1337.72893772894,0.27017427017427,32.1801066542976
1743374336702,18:38:56.702,72,-1,1318.68131868132,0.27017427017427,32.1801066542976
1743374336721,18:38:56.721,72,-1,1287.17948717949,0.271506271506271,32.1801066542976
1743374336741,18:38:56.741,72,-1,1265.20146520147,0.272838272838273,32.1801066542976
1743374336760,18:38:56.760,72,-1,1247.61904761905,0.273726273726274,32.1801066542976
1743374336780,18:38:56.780,72,-1,1231.50183150183,0.275502275502275,32.1801066542976
1743374336799,18:38:56.799,72,-1,1220.51282051282,0.275946275946276,32.1801066542976
1743374336819,18:38:56.819,72,-1,1216.11721611722,0.276390276390276,32.1801066542976
1743374336838,18:38:56.838,72,-1,1223.44322344322,0.275946275946276,32.1801066542976
1743374336858,18:38:56.858,72,-1,1220.51282051282,0.275946275946276,32.1801066542976
1743374336877,18:38:56.877,72,-1,1211.72161172161,0.275502275502275,32.1801066542976
1743374336897,18:38:56.897,72,-1,1211.72161172161,0.275058275058275,32.1801066542976
1743374336916,18:38:56.916,72,-1,1216.84981684982,0.275946275946276,32.1801066542976
1743374336936,18:38:56.936,72,-1,1216.84981684982,0.275946275946276,32.1801066542976
1743374336955,18:38:56.955,72,-1,1214.65201465201,0.275946275946276,32.1801066542976
1743374336975,18:38:56.975,72,-1,1202.9304029304,0.275946275946276,32.1801066542976
1743374336994,18:38:56.994,72,-1,1201.4652014652,0.275946275946276,32.1801066542976
1743374337014,18:38:57.014,72,-1,1198.5347985348,0.275946275946276,32.1801066542976
1743374337033,18:38:57.033,72,-1,1193.40659340659,0.275502275502275,32.1801066542976
1743374337053,18:38:57.053,72,-1,1181.68498168498,0.275502275502275,32.1801066542976
1743374337072,18:38:57.072,72,-1,1178.75457875458,0.275502275502275,32.1801066542976
1743374337092,18:38:57.092,72,-1,1188.27838827839,0.275502275502275,32.1801066542976
1743374337111,18:38:57.111,72,-1,1194.87179487179,0.275502275502275,32.1801066542976
1743374337131,18:38:57.131,72,-1,1208.79120879121,0.275502275502275,32.1801066542976
1743374337150,18:38:57.150,72,-1,1210.98901098901,0.275502275502275,32.1801066542976
1743374337170,18:38:57.170,72,-1,1205.12820512821,0.275502275502275,32.1801066542976
1743374337189,18:38:57.189,72,-1,1194.87179487179,0.275946275946276,32.1801066542976
1743374337209,18:38:57.209,72,-1,1198.5347985348,0.275946275946276,32.1801066542976
1743374337228,18:38:57.228,72,-1,1197.0695970696,0.275946275946276,32.2051305229543
1743374337248,18:38:57.248,75,-1,1207.32600732601,0.275946275946276,32.2051305229543
1743374337267,18:38:57.267,75,-1,1223.44322344322,0.275502275502275,32.2051305229543
1743374337287,18:38:57.287,75,-1,1254.94505494505,0.275502275502275,32.2051305229543
1743374337306,18:38:57.306,75,-1,1290.84249084249,0.275502275502275,32.2051305229543
1743374337326,18:38:57.326,75,-1,1333.33333333333,0.275502275502275,32.2051305229543
1743374337345,18:38:57.345,75,-1,1369.96336996337,0.275946275946276,32.2051305229543
1743374337365,18:38:57.365,75,-1,1396.336996337,0.275502275502275,32.2051305229543
1743374337384,18:38:57.384,75,-1,1414.65201465201,0.275502275502275,32.2051305229543
1743374337404,18:38:57.404,75,-1,1435.16483516484,0.275058275058275,32.2051305229543
1743374337423,18:38:57.423,75,-1,1459.34065934066,0.274614274614275,32.2051305229543
1743374337443,18:38:57.443,75,-1,1458.60805860806,0.274614274614275,32.2051305229543
1743374337462,18:38:57.462,75,-1,1437.36263736264,0.274170274170274,32.2051305229543
1743374337482,18:38:57.482,75,-1,1427.10622710623,0.274170274170274,32.2051305229543
1743374337501,18:38:57.501,75,-1,1419.04761904762,0.274170274170274,32.2051305229543
1743374337521,18:38:57.521,75,-1,1416.11721611722,0.274170274170274,32.2051305229543
1743374337540,18:38:57.540,75,-1,1400,0.273726273726274,32.2051305229543
1743374337560,18:38:57.560,75,-1,1386.81318681319,0.273282273282273,32.2051305229543
1743374337579,18:38:57.579,75,-1,1379.48717948718,0.273282273282273,32.2051305229543
1743374337599,18:38:57.599,75,-1,1375.82417582418,0.272394272394272,32.2051305229543
1743374337618,18:38:57.618,75,-1,1366.30036630037,0.271950271950272,32.2051305229543
1743374337638,18:38:57.638,75,-1,1339.92673992674,0.271062271062271,32.2051305229543
1743374337657,18:38:57.657,75,-1,1337.72893772894,0.270618270618271,32.2051305229543
1743374337677,18:38:57.677,75,-1,1342.85714285714,0.268398268398268,32.2051305229543
1743374337696,18:38:57.696,75,-1,1331.13553113553,0.266178266178266,32.2051305229543
1743374337716,18:38:57.716,75,-1,1308.42490842491,0.265290265290265,32.2051305229543
1743374337735,18:38:57.735,75,-1,1290.10989010989,0.263070263070263,32.2051305229543
1743374337755,18:38:57.755,75,-1,1265.20146520147,0.263070263070263,32.2051305229543
1743374337774,18:38:57.774,75,-1,1255.67765567766,0.262626262626263,32.2051305229543
1743374337794,18:38:57.794,75,-1,1252.74725274725,0.253746253746254,32.2051305229543
1743374337813,18:38:57.813,75,-1,1252.74725274725,0.249306249306249,32.2051305229543
1743374337833,18:38:57.833,75,-1,1255.67765567766,0.256854256854257,32.2051305229543
1743374337852,18:38:57.852,75,-1,1247.61904761905,0.259518259518259,32.2051305229543
1743374337872,18:38:57.872,75,-1,1253.47985347985,0.259074259074259,32.2051305229543
1743374337891,18:38:57.891,75,-1,1247.61904761905,0.257298257298257,32.2051305229543
1743374337911,18:38:57.911,75,-1,1241.75824175824,0.257298257298257,32.2051305229543
1743374337930,18:38:57.930,75,-1,1246.15384615385,0.258630258630259,32.2051305229543
1743374337950,18:38:57.950,75,-1,1245.42124542125,0.258186258186258,32.2051305229543
1743374337969,18:38:57.969,75,-1,1248.35164835165,0.257298257298257,32.2051305229543
1743374337989,18:38:57.989,75,-1,1246.15384615385,0.256854256854257,32.2051305229543
1743374338008,18:38:58.008,75,-1,1232.96703296703,0.257742257742258,32.2051305229543
1743374338028,18:38:58.028,75,-1,1224.17582417582,0.258186258186258,32.2051305229543
1743374338047,18:38:58.047,75,-1,1219.78021978022,0.258186258186258,32.2051305229543
1743374338067,18:38:58.067,75,-1,1209.52380952381,0.257742257742258,32.2051305229543
1743374338086,18:38:58.086,75,-1,1205.86080586081,0.258186258186258,32.2051305229543
1743374338106,18:38:58.106,75,-1,1215.38461538462,0.258186258186258,32.2051305229543
1743374338125,18:38:58.125,75,-1,1219.04761904762,0.258186258186258,32.2051305229543
1743374338145,18:38:58.145,75,-1,1227.83882783883,0.258186258186258,32.2051305229543
1743374338164,18:38:58.164,75,-1,1238.82783882784,0.258186258186258,32.2051305229543
1743374338184,18:38:58.184,75,-1,1243.22344322344,0.257742257742258,32.2051305229543
1743374338203,18:38:58.203,75,-1,1242.49084249084,0.258186258186258,32.2051305229543
1743374338223,18:38:58.223,75,-1,1240.29304029304,0.257742257742258,32.2301542460918
1743374338242,18:38:58.242,75,-1,1224.90842490842,0.258186258186258,32.2301542460918
1743374338262,18:38:58.262,81,-1,1219.78021978022,0.257742257742258,32.2301542460918
1743374338281,18:38:58.281,81,-1,1241.02564102564,0.256854256854257,32.2301542460918
1743374338301,18:38:58.301,81,-1,1275.45787545788,0.256410256410256,32.2301542460918
1743374338320,18:38:58.320,81,-1,1312.82051282051,0.255966255966256,32.2301542460918
1743374338340,18:38:58.340,81,-1,1352.38095238095,0.255522255522255,32.2301542460918
1743374338359,18:38:58.359,81,-1,1390.47619047619,0.255522255522255,32.2301542460918
1743374338379,18:38:58.379,81,-1,1417.58241758242,0.255966255966256,32.2301542460918
1743374338398,18:38:58.398,81,-1,1432.23443223443,0.255522255522255,32.2301542460918
1743374338418,18:38:58.418,81,-1,1436.63003663004,0.255522255522255,32.2301542460918
1743374338437,18:38:58.437,81,-1,1438.09523809524,0.255522255522255,32.2301542460918
1743374338457,18:38:58.457,81,-1,1432.96703296703,0.255522255522255,32.2301542460918
1743374338476,18:38:58.476,81,-1,1430.03663003663,0.255078255078255,32.2301542460918
1743374338496,18:38:58.496,81,-1,1435.89743589744,0.254634254634255,32.2301542460918
1743374338515,18:38:58.515,81,-1,1438.09523809524,0.254634254634255,32.2301542460918
1743374338535,18:38:58.535,81,-1,1435.89743589744,0.255078255078255,32.2301542460918
1743374338554,18:38:58.554,81,-1,1415.38461538462,0.255966255966256,32.2301542460918
1743374338574,18:38:58.574,81,-1,1395.6043956044,0.256854256854257,32.2301542460918
1743374338593,18:38:58.593,81,-1,1367.03296703297,0.256854256854257,32.2301542460918
1743374338613,18:38:58.613,81,-1,1349.45054945055,0.257742257742258,32.2301542460918
1743374338632,18:38:58.632,81,-1,1346.52014652015,0.258630258630259,32.2301542460918
1743374338652,18:38:58.652,81,-1,1349.45054945055,0.258186258186258,32.2301542460918
1743374338671,18:38:58.671,81,-1,1347.25274725275,0.258186258186258,32.2301542460918
1743374338691,18:38:58.691,81,-1,1343.58974358974,0.258186258186258,32.2301542460918
1743374338710,18:38:58.710,81,-1,1332.60073260073,0.258186258186258,32.2301542460918
1743374338730,18:38:58.730,81,-1,1324.54212454212,0.258186258186258,32.2301542460918
1743374338749,18:38:58.749,81,-1,1312.82051282051,0.257298257298257,32.2301542460918
1743374338769,18:38:58.769,81,-1,1315.01831501831,0.256854256854257,32.2301542460918
1743374338788,18:38:58.788,81,-1,1307.69230769231,0.255522255522255,32.2301542460918
1743374338808,18:38:58.808,81,-1,1312.82051282051,0.254190254190254,32.2301542460918
1743374338827,18:38:58.827,81,-1,1313.55311355311,0.253746253746254,32.2301542460918
1743374338847,18:38:58.847,81,-1,1298.1684981685,0.250638250638251,32.2301542460918
1743374338866,18:38:58.866,81,-1,1279.12087912088,0.247086247086247,32.2301542460918
1743374338886,18:38:58.886,81,-1,1273.99267399267,0.230658230658231,32.2301542460918
1743374338905,18:38:58.905,81,-1,1271.79487179487,0.212454212454212,32.2301542460918
1743374338925,18:38:58.925,81,-1,1273.26007326007,0.206682206682207,32.2301542460918
1743374338944,18:38:58.944,81,-1,1276.92307692308,0.205794205794206,32.2301542460918
1743374338964,18:38:58.964,81,-1,1278.38827838828,0.205350205350205,32.2301542460918
1743374338983,18:38:58.983,81,-1,1276.19047619048,0.203574203574204,32.2301542460918
1743374339003,18:38:59.003,81,-1,1277.65567765568,0.201354201354201,32.2301542460918
1743374339022,18:38:59.022,81,-1,1284.98168498168,0.201354201354201,32.2301542460918
1743374339042,18:38:59.042,81,-1,1273.26007326007,0.202242202242202,32.2301542460918
1743374339061,18:38:59.061,81,-1,1265.93406593407,0.203574203574204,32.2301542460918
1743374339081,18:38:59.081,81,-1,1260.07326007326,0.204906204906205,32.2301542460918
1743374339100,18:38:59.100,81,-1,1271.06227106227,0.206238206238206,32.2301542460918
1743374339120,18:38:59.120,81,-1,1266.66666666667,0.208458208458208,32.2301542460918
1743374339139,18:38:59.139,81,-1,1249.81684981685,0.21023421023421,32.2301542460918
1743374339159,18:38:59.159,81,-1,1238.82783882784,0.213786213786214,32.2301542460918
1743374339178,18:38:59.178,81,-1,1234.43223443223,0.216450216450216,32.2301542460918
1743374339198,18:38:59.198,81,-1,1233.69963369963,0.217338217338217,32.2301542460918
1743374339217,18:38:59.217,81,-1,1223.44322344322,0.218226218226218,32.2601825217716
1743374339237,18:38:59.237,81,-1,1228.57142857143,0.218226218226218,32.2601825217716
1743374339256,18:38:59.256,81,-1,1239.56043956044,0.218670218670219,32.2601825217716
1743374339276,18:38:59.276,81,-1,1263.73626373626,0.218670218670219,32.2601825217716
1743374339295,18:38:59.295,81,-1,1290.10989010989,0.219114219114219,32.2601825217716
1743374339315,18:38:59.315,-1,-1,1331.13553113553,0.219114219114219,32.2601825217716
1743374339334,18:38:59.334,-1,-1,1370.69597069597,0.219114219114219,32.2601825217716
1743374339354,18:38:59.354,-1,-1,1410.25641025641,0.219114219114219,32.2601825217716
1743374339373,18:38:59.373,-1,-1,1439.56043956044,0.21955821955822,32.2601825217716
1743374339393,18:38:59.393,-1,-1,1457.87545787546,0.22000222000222,32.2601825217716
1743374339412,18:38:59.412,-1,-1,1470.32967032967,0.22044622044622,32.2601825217716
1743374339432,18:38:59.432,-1,-1,1493.04029304029,0.22044622044622,32.2601825217716
1743374339451,18:38:59.451,-1,-1,1512.82051282051,0.22044622044622,32.2601825217716
1743374339471,18:38:59.471,-1,-1,1526.73992673993,0.22000222000222,32.2601825217716
1743374339490,18:38:59.490,-1,-1,1528.20512820513,0.22044622044622,32.2601825217716
1743374339510,18:38:59.510,-1,-1,1515.01831501831,0.221334221334221,32.2601825217716
1743374339529,18:38:59.529,-1,-1,1500.3663003663,0.222222222222222,32.2601825217716
1743374339549,18:38:59.549,-1,-1,1487.91208791209,0.222666222666223,32.2601825217716
1743374339568,18:38:59.568,-1,-1,1468.86446886447,0.223110223110223,32.2601825217716
1743374339588,18:38:59.588,-1,-1,1449.08424908425,0.223110223110223,32.2601825217716
1743374339607,18:38:59.607,-1,-1,1436.63003663004,0.222222222222222,32.2601825217716
1743374339627,18:38:59.627,-1,-1,1426.37362637363,0.222222222222222,32.2601825217716
1743374339646,18:38:59.646,-1,-1,1423.44322344322,0.221778221778222,32.2601825217716
1743374339666,18:38:59.666,-1,-1,1435.89743589744,0.221334221334221,32.2601825217716
1743374339685,18:38:59.685,-1,-1,1445.42124542125,0.220890220890221,32.2601825217716
1743374339705,18:38:59.705,-1,-1,1450.54945054945,0.220890220890221,32.2601825217716
1743374339724,18:38:59.724,-1,-1,1446.15384615385,0.22000222000222,32.2601825217716
1743374339744,18:38:59.744,-1,-1,1437.36263736264,0.21955821955822,32.2601825217716
1743374339763,18:38:59.763,-1,-1,1424.17582417582,0.21955821955822,32.2601825217716
1743374339783,18:38:59.783,-1,-1,1406.59340659341,0.219114219114219,32.2601825217716
1743374339802,18:38:59.802,-1,-1,1390.47619047619,0.21955821955822,32.2601825217716
1743374339822,18:38:59.822,-1,-1,1378.02197802198,0.219114219114219,32.2601825217716
1743374339841,18:38:59.841,-1,-1,1367.76556776557,0.219114219114219,32.2601825217716
1743374339861,18:38:59.861,-1,-1,1354.57875457875,0.219114219114219,32.2601825217716
1743374339880,18:38:59.880,-1,-1,1344.32234432234,0.218670218670219,32.2601825217716
1743374339900,18:38:59.900,-1,-1,1339.92673992674,0.217338217338217,32.2601825217716
1743374339919,18:38:59.919,-1,-1,1326.00732600733,0.216894216894217,32.2601825217716
1743374339939,18:38:59.939,-1,-1,1298.9010989011,0.216894216894217,32.2601825217716
1743374339958,18:38:59.958,-1,-1,1284.98168498168,0.216450216450216,32.2601825217716
1743374339978,18:38:59.978,-1,-1,1289.37728937729,0.216450216450216,32.2601825217716
1743374339997,18:38:59.997,-1,-1,1310.62271062271,0.216450216450216,32.2601825217716
1743374340017,18:39:00.017,-1,-1,1306.22710622711,0.215562215562216,32.2601825217716
1743374340036,18:39:00.036,-1,-1,1294.50549450549,0.215118215118215,32.2601825217716
1743374340056,18:39:00.056,-1,-1,1300.3663003663,0.212454212454212,32.2601825217716
1743374340075,18:39:00.075,-1,-1,1306.22710622711,0.208902208902209,32.2601825217716
1743374340095,18:39:00.095,-1,-1,1300.3663003663,0.207126207126207,32.2601825217716
1743374340114,18:39:00.114,-1,-1,1302.5641025641,0.204906204906205,32.2601825217716
1743374340134,18:39:00.134,-1,-1,1301.8315018315,0.196026196026196,32.2601825217716
1743374340153,18:39:00.153,-1,-1,1302.5641025641,0.195138195138195,32.2601825217716
1743374340173,18:39:00.173,-1,-1,1292.30769230769,0.197358197358197,32.2601825217716
1743374340192,18:39:00.192,-1,-1,1281.31868131868,0.197802197802198,32.2601825217716
1743374340212,18:39:00.212,-1,-1,1277.65567765568,0.198690198690199,32.2802012558095
1743374340231,18:39:00.231,-1,-1,1288.64468864469,0.199134199134199,32.2802012558095
1743374340251,18:39:00.251,-1,-1,1284.98168498168,0.2000222000222,32.2802012558095
1743374340270,18:39:00.270,-1,-1,1278.38827838828,0.2000222000222,32.2802012558095
1743374340290,18:39:00.290,-1,-1,1303.2967032967,0.200910200910201,32.2802012558095
1743374340309,18:39:00.309,-1,-1,1347.98534798535,0.201798201798202,32.2802012558095
1743374340329,18:39:00.329,57,-1,1424.90842490842,0.201798201798202,32.2802012558095
1743374340348,18:39:00.348,57,-1,1498.1684981685,0.203574203574204,32.2802012558095
1743374340368,18:39:00.368,57,-1,1557.50915750916,0.206238206238206,32.2802012558095
1743374340387,18:39:00.387,57,-1,1622.71062271062,0.208458208458208,32.2802012558095
1743374340407,18:39:00.407,57,-1,1666.66666666667,0.21023421023421,32.2802012558095
1743374340426,18:39:00.426,57,-1,1694.50549450549,0.212010212010212,32.2802012558095
1743374340446,18:39:00.446,57,-1,1704.7619047619,0.212898212898213,32.2802012558095
1743374340465,18:39:00.465,57,-1,1717.94871794872,0.213342213342213,32.2802012558095
1743374340485,18:39:00.485,57,-1,1730.40293040293,0.215562215562216,32.2802012558095
1743374340504,18:39:00.504,57,-1,1734.79853479853,0.217782217782218,32.2802012558095
1743374340524,18:39:00.524,57,-1,1745.78754578755,0.21955821955822,32.2802012558095
1743374340543,18:39:00.543,57,-1,1745.05494505494,0.220890220890221,32.2802012558095
1743374340563,18:39:00.563,57,-1,1732.60073260073,0.221334221334221,32.2802012558095
1743374340582,18:39:00.582,57,-1,1704.0293040293,0.220890220890221,32.2802012558095
1743374340602,18:39:00.602,57,-1,1679.12087912088,0.221778221778222,32.2802012558095
1743374340621,18:39:00.621,57,-1,1660.07326007326,0.222666222666223,32.2802012558095
1743374340641,18:39:00.641,57,-1,1626.37362637363,0.223998223998224,32.2802012558095
1743374340660,18:39:00.660,57,-1,1610.25641025641,0.224442224442224,32.2802012558095
1743374340680,18:39:00.680,57,-1,1607.32600732601,0.225330225330225,32.2802012558095
1743374340699,18:39:00.699,57,-1,1594.87179487179,0.225330225330225,32.2802012558095
1743374340719,18:39:00.719,57,-1,1591.94139194139,0.226218226218226,32.2802012558095
1743374340738,18:39:00.738,57,-1,1579.48717948718,0.226662226662227,32.2802012558095
1743374340758,18:39:00.758,57,-1,1569.96336996337,0.227106227106227,32.2802012558095
1743374340777,18:39:00.777,57,-1,1550.91575091575,0.227550227550227,32.2802012558095
1743374340797,18:39:00.797,57,-1,1524.54212454212,0.227550227550227,32.2802012558095
1743374340816,18:39:00.816,57,-1,1490.84249084249,0.227106227106227,32.2802012558095
1743374340836,18:39:00.836,57,-1,1461.53846153846,0.227106227106227,32.2802012558095
1743374340855,18:39:00.855,57,-1,1441.02564102564,0.227106227106227,32.2802012558095
1743374340875,18:39:00.875,57,-1,1421.24542124542,0.227106227106227,32.2802012558095
1743374340894,18:39:00.894,57,-1,1409.52380952381,0.227106227106227,32.2802012558095
1743374340914,18:39:00.914,57,-1,1399.2673992674,0.227106227106227,32.2802012558095
1743374340933,18:39:00.933,57,-1,1393.40659340659,0.227106227106227,32.2802012558095
1743374340953,18:39:00.953,57,-1,1380.21978021978,0.227550227550227,32.2802012558095
1743374340972,18:39:00.972,57,-1,1373.62637362637,0.227994227994228,32.2802012558095
1743374340992,18:39:00.992,57,-1,1358.24175824176,0.227994227994228,32.2802012558095
1743374341011,18:39:01.011,57,-1,1340.65934065934,0.22977022977023,32.2802012558095
1743374341031,18:39:01.031,57,-1,1343.58974358974,0.232434232434232,32.2802012558095
1743374341050,18:39:01.050,57,-1,1350.91575091575,0.240870240870241,32.2802012558095
1743374341070,18:39:01.070,57,-1,1353.11355311355,0.245754245754246,32.2802012558095
1743374341089,18:39:01.089,57,-1,1346.52014652015,0.247530247530248,32.2802012558095
1743374341109,18:39:01.109,57,-1,1326.73992673993,0.252858252858253,32.2802012558095
1743374341128,18:39:01.128,57,-1,1315.75091575092,0.259518259518259,32.2802012558095
1743374341148,18:39:01.148,57,-1,1315.01831501831,0.263514263514264,32.2802012558095
1743374341167,18:39:01.167,57,-1,1315.75091575092,0.262182262182262,32.2802012558095
1743374341187,18:39:01.187,57,-1,1322.34432234432,0.261738261738262,32.2802012558095
1743374341206,18:39:01.206,57,-1,1319.41391941392,0.263070263070263,32.3252430668799
1743374341226,18:39:01.226,57,-1,1315.75091575092,0.267066267066267,32.3252430668799
1743374341245,18:39:01.245,57,-1,1312.82051282051,0.272838272838273,32.3252430668799
1743374341265,18:39:01.265,57,-1,1333.33333333333,0.275502275502275,32.3252430668799
1743374341284,18:39:01.284,57,-1,1391.94139194139,0.283050283050283,32.3252430668799
1743374341304,18:39:01.304,57,-1,1481.31868131868,0.289266289266289,32.3252430668799
1743374341323,18:39:01.323,57,-1,1612.45421245421,0.287934287934288,32.3252430668799
1743374341343,18:39:01.343,59,-1,1739.92673992674,0.270618270618271,32.3252430668799
1743374341362,18:39:01.362,59,-1,1845.42124542125,0.25996225996226,32.3252430668799
1743374341382,18:39:01.382,59,-1,1910.62271062271,0.271062271062271,32.3252430668799
1743374341401,18:39:01.401,59,-1,1934.06593406593,0.277722277722278,32.3252430668799
1743374341421,18:39:01.421,59,-1,1925.27472527473,0.294150294150294,32.3252430668799
1743374341440,18:39:01.440,59,-1,1901.0989010989,0.305694305694306,32.3252430668799
1743374341460,18:39:01.460,59,-1,1882.78388278388,0.327006327006327,32.3252430668799
1743374341479,18:39:01.479,59,-1,1876.19047619048,0.32967032967033,32.3252430668799
1743374341499,18:39:01.499,59,-1,1871.79487179487,0.338106338106338,32.3252430668799
1743374341518,18:39:01.518,59,-1,1851.28205128205,0.332778332778333,32.3252430668799
1743374341538,18:39:01.538,59,-1,1814.65201465201,0.332778332778333,32.3252430668799
1743374341557,18:39:01.557,59,-1,1763.36996336996,0.344322344322344,32.3252430668799
1743374341577,18:39:01.577,59,-1,1723.80952380952,0.344766344766345,32.3252430668799
1743374341596,18:39:01.596,59,-1,1713.55311355311,0.347430347430347,32.3252430668799
1743374341616,18:39:01.616,59,-1,1701.8315018315,0.347874347874348,32.3252430668799
1743374341635,18:39:01.635,59,-1,1704.7619047619,0.347874347874348,32.3252430668799
1743374341655,18:39:01.655,59,-1,1704.7619047619,0.349206349206349,32.3252430668799
1743374341674,18:39:01.674,59,-1,1693.77289377289,0.351870351870352,32.3252430668799
1743374341694,18:39:01.694,59,-1,1671.06227106227,0.354534354534355,32.3252430668799
1743374341713,18:39:01.713,59,-1,1652.01465201465,0.372294372294372,32.3252430668799
1743374341733,18:39:01.733,59,-1,1633.69963369963,0.398934398934399,32.3252430668799
1743374341752,18:39:01.752,59,-1,1603.663003663,0.407370407370407,32.3252430668799
1743374341772,18:39:01.772,59,-1,1580.21978021978,0.412698412698413,32.3252430668799
1743374341791,18:39:01.791,59,-1,1543.58974358974,0.414474414474414,32.3252430668799
1743374341811,18:39:01.811,59,-1,1513.55311355311,0.416694416694417,32.3252430668799
1743374341830,18:39:01.830,59,-1,1486.44688644689,0.418026418026418,32.3252430668799
1743374341850,18:39:01.850,59,-1,1458.60805860806,0.418914418914419,32.3252430668799
1743374341869,18:39:01.869,59,-1,1433.69963369963,0.42024642024642,32.3252430668799
1743374341889,18:39:01.889,59,-1,1414.65201465201,0.422022422022422,32.3252430668799
1743374341908,18:39:01.908,59,-1,1397.8021978022,0.424242424242424,32.3252430668799
1743374341928,18:39:01.928,59,-1,1387.54578754579,0.425574425574426,32.3252430668799
1743374341947,18:39:01.947,59,-1,1380.21978021978,0.426906426906427,32.3252430668799
1743374341967,18:39:01.967,59,-1,1375.09157509157,0.427350427350427,32.3252430668799
1743374341986,18:39:01.986,59,-1,1368.49816849817,0.427794427794428,32.3252430668799
1743374342006,18:39:02.006,59,-1,1357.50915750916,0.428238428238428,32.3252430668799
1743374342025,18:39:02.025,59,-1,1350.18315018315,0.429126429126429,32.3252430668799
1743374342045,18:39:02.045,59,-1,1335.53113553114,0.43001443001443,32.3252430668799
1743374342064,18:39:02.064,59,-1,1327.47252747253,0.431790431790432,32.3252430668799
1743374342084,18:39:02.084,59,-1,1321.61172161172,0.436230436230436,32.3252430668799
1743374342103,18:39:02.103,59,-1,1312.82051282051,0.447774447774448,32.3252430668799
1743374342123,18:39:02.123,59,-1,1301.8315018315,0.44999444999445,32.3252430668799
1743374342142,18:39:02.142,59,-1,1308.42490842491,0.451326451326451,32.3252430668799
1743374342162,18:39:02.162,59,-1,1355.31135531136,0.451770451770452,32.3252430668799
1743374342181,18:39:02.181,59,-1,1441.75824175824,0.452658452658453,32.3252430668799
1743374342201,18:39:02.201,59,-1,1561.17216117216,0.453102453102453,32.345261498238
1743374342220,18:39:02.220,59,-1,1692.30769230769,0.453546453546453,32.345261498238
1743374342240,18:39:02.240,59,-1,1794.13919413919,0.453990453990454,32.345261498238
1743374342259,18:39:02.259,59,-1,1865.20146520146,0.454878454878455,32.345261498238
1743374342279,18:39:02.279,59,-1,1901.0989010989,0.455322455322455,32.345261498238
1743374342298,18:39:02.298,59,-1,1887.17948717949,0.454878454878455,32.345261498238
1743374342318,18:39:02.318,59,-1,1871.79487179487,0.455322455322455,32.345261498238
1743374342337,18:39:02.337,59,-1,1855.67765567766,0.455766455766456,32.345261498238
1743374342357,18:39:02.357,59,-1,1850.54945054945,0.456210456210456,32.345261498238
1743374342376,18:39:02.376,59,-1,1851.28205128205,0.457098457098457,32.345261498238
1743374342396,18:39:02.396,59,-1,1836.63003663004,0.457098457098457,32.345261498238
1743374342415,18:39:02.415,59,-1,1808.79120879121,0.457542457542458,32.345261498238
1743374342435,18:39:02.435,59,-1,1759.70695970696,0.457542457542458,32.345261498238
1743374342454,18:39:02.454,59,-1,1694.50549450549,0.458430458430458,32.345261498238
1743374342474,18:39:02.474,59,-1,1647.61904761905,0.459318459318459,32.345261498238
1743374342493,18:39:02.493,59,-1,1615.38461538462,0.45976245976246,32.345261498238
1743374342513,18:39:02.513,59,-1,1597.8021978022,0.460650460650461,32.345261498238
1743374342532,18:39:02.532,59,-1,1582.41758241758,0.461094461094461,32.345261498238
1743374342552,18:39:02.552,59,-1,1573.62637362637,0.462426462426462,32.345261498238
1743374342571,18:39:02.571,59,-1,1569.23076923077,0.463314463314463,32.345261498238
1743374342591,18:39:02.591,59,-1,1534.06593406593,0.463758463758464,32.345261498238
1743374342610,18:39:02.610,59,-1,1498.1684981685,0.464646464646465,32.345261498238
1743374342630,18:39:02.630,59,-1,1473.99267399267,0.465534465534465,32.345261498238
1743374342649,18:39:02.649,59,-1,1429.30402930403,0.465978465978466,32.345261498238
1743374342669,18:39:02.669,59,-1,1393.40659340659,0.467310467310467,32.345261498238
1743374342688,18:39:02.688,59,-1,1371.42857142857,0.468642468642469,32.345261498238
1743374342708,18:39:02.708,59,-1,1350.18315018315,0.46997446997447,32.345261498238
1743374342727,18:39:02.727,59,-1,1328.20512820513,0.470862470862471,32.345261498238
1743374342747,18:39:02.747,59,-1,1313.55311355311,0.471750471750472,32.345261498238
1743374342766,18:39:02.766,59,-1,1312.08791208791,0.473082473082473,32.345261498238
1743374342786,18:39:02.786,59,-1,1301.0989010989,0.474414474414474,32.345261498238
1743374342805,18:39:02.805,59,-1,1279.12087912088,0.475746475746476,32.345261498238
1743374342825,18:39:02.825,59,-1,1261.53846153846,0.477522477522477,32.345261498238
1743374342844,18:39:02.844,59,-1,1243.22344322344,0.478854478854479,32.345261498238
1743374342864,18:39:02.864,59,-1,1216.84981684982,0.47974247974248,32.345261498238
1743374342883,18:39:02.883,59,-1,1210.98901098901,0.481074481074481,32.345261498238
1743374342903,18:39:02.903,59,-1,1223.44322344322,0.481518481518481,32.345261498238
1743374342922,18:39:02.922,59,-1,1238.09523809524,0.481962481962482,32.345261498238
1743374342942,18:39:02.942,59,-1,1248.35164835165,0.483294483294483,32.345261498238
1743374342961,18:39:02.961,59,-1,1249.81684981685,0.483738483738484,32.345261498238
1743374342981,18:39:02.981,59,-1,1241.02564102564,0.484626484626484,32.345261498238
1743374343000,18:39:03.000,59,-1,1214.65201465201,0.485070485070485,32.345261498238
1743374343020,18:39:03.020,59,-1,1190.47619047619,0.485514485514485,32.345261498238
1743374343039,18:39:03.039,59,-1,1174.35897435897,0.486402486402486,32.345261498238
1743374343059,18:39:03.059,59,-1,1165.56776556777,0.487290487290487,32.345261498238
1743374343078,18:39:03.078,59,-1,1171.42857142857,0.487734487734488,32.345261498238
1743374343098,18:39:03.098,59,-1,1214.65201465201,0.488178488178488,32.345261498238
1743374343117,18:39:03.117,59,-1,1293.77289377289,0.489066489066489,32.345261498238
1743374343137,18:39:03.137,59,-1,1395.6043956044,0.48951048951049,32.345261498238
1743374343156,18:39:03.156,59,-1,1503.2967032967,0.48995448995449,32.345261498238
1743374343176,18:39:03.176,59,-1,1604.3956043956,0.49039849039849,32.345261498238
1743374343195,18:39:03.195,59,-1,1679.12087912088,0.490842490842491,32.3652798364637
1743374343215,18:39:03.215,59,-1,1724.54212454212,0.491286491286491,32.3652798364637
1743374343234,18:39:03.234,59,-1,1748.71794871795,0.493506493506494,32.3652798364637
1743374343254,18:39:03.254,59,-1,1745.78754578755,0.496170496170496,32.3652798364637
1743374343273,18:39:03.273,59,-1,1728.93772893773,0.497946497946498,32.3652798364637
1743374343293,18:39:03.293,59,-1,1704.7619047619,0.4997224997225,32.3652798364637
1743374343312,18:39:03.312,59,-1,1684.24908424908,0.500610500610501,32.3652798364637
1743374343332,18:39:03.332,59,-1,1649.81684981685,0.501942501942502,32.3652798364637
1743374343351,18:39:03.351,59,-1,1628.57142857143,0.503274503274503,32.3652798364637
1743374343371,18:39:03.371,59,-1,1585.34798534799,0.504162504162504,32.3652798364637
1743374343390,18:39:03.390,59,-1,1520.87912087912,0.505050505050505,32.3652798364637
1743374343410,18:39:03.410,59,-1,1483.51648351648,0.505494505494505,32.3652798364637
1743374343429,18:39:03.429,59,-1,1462.27106227106,0.506382506382506,32.3652798364637
1743374343449,18:39:03.449,59,-1,1452.74725274725,0.507270507270507,32.3652798364637
1743374343468,18:39:03.468,59,-1,1432.96703296703,0.507714507714508,32.3652798364637
1743374343488,18:39:03.488,59,-1,1413.18681318681,0.508602508602509,32.3652798364637
1743374343507,18:39:03.507,59,-1,1398.5347985348,0.509490509490509,32.3652798364637
1743374343527,18:39:03.527,59,-1,1380.95238095238,0.50993450993451,32.3652798364637
1743374343546,18:39:03.546,59,-1,1374.35897435897,0.51037851037851,32.3652798364637
1743374343566,18:39:03.566,59,-1,1362.63736263736,0.511266511266511,32.3652798364637
1743374343585,18:39:03.585,59,-1,1339.19413919414,0.511710511710512,32.3652798364637
1743374343605,18:39:03.605,59,-1,1324.54212454212,0.512598512598513,32.3652798364637
1743374343624,18:39:03.624,59,-1,1303.2967032967,0.513486513486513,32.3652798364637
1743374343644,18:39:03.644,59,-1,1275.45787545788,0.513930513930514,32.3652798364637
1743374343663,18:39:03.663,59,-1,1243.95604395604,0.514818514818515,32.3652798364637
1743374343683,18:39:03.683,59,-1,1230.76923076923,0.514818514818515,32.3652798364637
1743374343702,18:39:03.702,59,-1,1232.23443223443,0.515706515706516,32.3652798364637
1743374343722,18:39:03.722,59,-1,1232.23443223443,0.516150516150516,32.3652798364637
1743374343741,18:39:03.741,59,-1,1215.38461538462,0.516594516594516,32.3652798364637
1743374343761,18:39:03.761,59,-1,1203.663003663,0.517038517038517,32.3652798364637
1743374343780,18:39:03.780,59,-1,1207.32600732601,0.517482517482518,32.3652798364637
1743374343800,18:39:03.800,59,-1,1208.05860805861,0.517482517482518,32.3652798364637
1743374343819,18:39:03.819,59,-1,1200,0.517926517926518,32.3652798364637
1743374343839,18:39:03.839,59,-1,1194.13919413919,0.518370518370518,32.3652798364637
1743374343858,18:39:03.858,59,-1,1181.68498168498,0.518814518814519,32.3652798364637
1743374343878,18:39:03.878,59,-1,1172.16117216117,0.51970251970252,32.3652798364637
1743374343897,18:39:03.897,59,-1,1167.03296703297,0.52059052059052,32.3652798364637
1743374343917,18:39:03.917,59,-1,1154.57875457875,0.521034521034521,32.3652798364637
1743374343936,18:39:03.936,59,-1,1151.64835164835,0.521922521922522,32.3652798364637
1743374343956,18:39:03.956,59,-1,1160.43956043956,0.522366522366522,32.3652798364637
1743374343975,18:39:03.975,59,-1,1161.90476190476,0.522810522810523,32.3652798364637
1743374343995,18:39:03.995,59,-1,1163.36996336996,0.523698523698524,32.3652798364637
1743374344014,18:39:04.014,59,-1,1168.49816849817,0.524586524586525,32.3652798364637
1743374344034,18:39:04.034,59,-1,1161.90476190476,0.525474525474525,32.3652798364637
1743374344053,18:39:04.053,59,-1,1155.31135531136,0.526362526362526,32.3652798364637
1743374344073,18:39:04.073,59,-1,1141.39194139194,0.527250527250527,32.3652798364637
1743374344092,18:39:04.092,59,-1,1160.43956043956,0.528138528138528,32.3652798364637
1743374344112,18:39:04.112,59,-1,1223.44322344322,0.529026529026529,32.3652798364637
1743374344131,18:39:04.131,59,-1,1320.14652014652,0.52991452991453,32.3652798364637
1743374344151,18:39:04.151,59,-1,1423.44322344322,0.530802530802531,32.3652798364637
1743374344170,18:39:04.170,59,-1,1498.9010989011,0.532134532134532,32.3652798364637
1743374344190,18:39:04.190,59,-1,1536.99633699634,0.532134532134532,32.3953071691794
1743374344209,18:39:04.209,59,-1,1547.25274725275,0.532134532134532,32.3953071691794
1743374344229,18:39:04.229,59,-1,1549.45054945055,0.532134532134532,32.3953071691794
1743374344248,18:39:04.248,59,-1,1542.85714285714,0.532134532134532,32.3953071691794
1743374344268,18:39:04.268,59,-1,1527.47252747253,0.532134532134532,32.3953071691794
1743374344287,18:39:04.287,59,-1,1513.55311355311,0.532578532578532,32.3953071691794
1743374344307,18:39:04.307,59,-1,1504.0293040293,0.533466533466533,32.3953071691794
1743374344326,18:39:04.326,59,-1,1498.1684981685,0.534798534798535,32.3953071691794
1743374344346,18:39:04.346,59,-1,1467.39926739927,0.535242535242535,32.3953071691794
1743374344365,18:39:04.365,59,-1,1435.16483516484,0.535686535686536,32.3953071691794
1743374344385,18:39:04.385,59,-1,1409.52380952381,0.536130536130536,32.3953071691794
1743374344404,18:39:04.404,58,-1,1397.8021978022,0.537462537462537,32.3953071691794
1743374344424,18:39:04.424,58,-1,1380.21978021978,0.538794538794539,32.3953071691794
1743374344443,18:39:04.443,58,-1,1369.96336996337,0.54012654012654,32.3953071691794
1743374344463,18:39:04.463,58,-1,1346.52014652015,0.541902541902542,32.3953071691794
1743374344482,18:39:04.482,58,-1,1336.26373626374,0.543678543678544,32.3953071691794
1743374344502,18:39:04.502,58,-1,1339.19413919414,0.544566544566545,32.3953071691794
1743374344521,18:39:04.521,58,-1,1321.61172161172,0.545454545454545,32.3953071691794
1743374344541,18:39:04.541,58,-1,1291.57509157509,0.546342546342546,32.3953071691794
1743374344560,18:39:04.560,58,-1,1271.79487179487,0.546786546786547,32.3953071691794
1743374344580,18:39:04.580,58,-1,1240.29304029304,0.548562548562548,32.3953071691794
1743374344599,18:39:04.599,58,-1,1219.78021978022,0.54945054945055,32.3953071691794
1743374344619,18:39:04.619,58,-1,1213.91941391941,0.55033855033855,32.3953071691794
1743374344638,18:39:04.638,58,-1,1216.11721611722,0.551226551226551,32.3953071691794
1743374344658,18:39:04.658,58,-1,1224.17582417582,0.552114552114552,32.3953071691794
1743374344677,18:39:04.677,58,-1,1227.83882783883,0.552558552558552,32.3953071691794
1743374344697,18:39:04.697,58,-1,1221.97802197802,0.553446553446553,32.3953071691794
1743374344716,18:39:04.716,58,-1,1219.04761904762,0.554334554334554,32.3953071691794
1743374344736,18:39:04.736,58,-1,1209.52380952381,0.554778554778555,32.3953071691794
1743374344755,18:39:04.755,58,-1,1190.47619047619,0.555666555666556,32.3953071691794
1743374344775,18:39:04.775,58,-1,1187.54578754579,0.556554556554557,32.3953071691794
1743374344794,18:39:04.794,58,-1,1180.21978021978,0.557442557442558,32.3953071691794
1743374344814,18:39:04.814,58,-1,1184.61538461538,0.557886557886558,32.3953071691794
1743374344833,18:39:04.833,58,-1,1191.20879120879,0.558774558774559,32.3953071691794
1743374344853,18:39:04.853,58,-1,1191.94139194139,0.55966255966256,32.3953071691794
1743374344872,18:39:04.872,58,-1,1180.21978021978,0.56010656010656,32.3953071691794
1743374344892,18:39:04.892,58,-1,1172.89377289377,0.560994560994561,32.3953071691794
1743374344911,18:39:04.911,58,-1,1180.21978021978,0.561882561882562,32.3953071691794
1743374344931,18:39:04.931,58,-1,1183.88278388278,0.562770562770563,32.3953071691794
1743374344950,18:39:04.950,58,-1,1170.69597069597,0.563214563214563,32.3953071691794
1743374344970,18:39:04.970,58,-1,1153.84615384615,0.564102564102564,32.3953071691794
1743374344989,18:39:04.989,58,-1,1147.98534798535,0.564990564990565,32.3953071691794
1743374345009,18:39:05.009,58,-1,1152.38095238095,0.565434565434565,32.3953071691794
1743374345028,18:39:05.028,58,-1,1159.70695970696,0.565878565878566,32.3953071691794
1743374345048,18:39:05.048,58,-1,1162.63736263736,0.566766566766567,32.3953071691794
1743374345067,18:39:05.067,58,-1,1169.96336996337,0.567210567210567,32.3953071691794
1743374345087,18:39:05.087,58,-1,1194.13919413919,0.568098568098568,32.3953071691794
1743374345106,18:39:05.106,58,-1,1225.64102564103,0.568542568542569,32.3953071691794
1743374345126,18:39:05.126,58,-1,1255.67765567766,0.569430569430569,32.3953071691794
1743374345145,18:39:05.145,58,-1,1285.71428571429,0.57031857031857,32.3953071691794
1743374345165,18:39:05.165,58,-1,1317.94871794872,0.570762570762571,32.3953071691794
1743374345184,18:39:05.184,58,-1,1372.16117216117,0.570762570762571,32.4103207569569
1743374345204,18:39:05.204,58,-1,1419.78021978022,0.571206571206571,32.4103207569569
1743374345223,18:39:05.223,58,-1,1446.15384615385,0.572094572094572,32.4103207569569
1743374345243,18:39:05.243,58,-1,1454.21245421245,0.572538572538572,32.4103207569569
1743374345262,18:39:05.262,58,-1,1457.14285714286,0.572538572538572,32.4103207569569
1743374345282,18:39:05.282,58,-1,1454.21245421245,0.572982572982573,32.4103207569569
1743374345301,18:39:05.301,58,-1,1454.21245421245,0.573426573426573,32.4103207569569
1743374345321,18:39:05.321,58,-1,1463.00366300366,0.573870573870574,32.4103207569569
1743374345340,18:39:05.340,59,-1,1468.13186813187,0.574314574314574,32.4103207569569
1743374345360,18:39:05.360,59,-1,1446.88644688645,0.574758574758575,32.4103207569569
1743374345379,18:39:05.379,59,-1,1407.32600732601,0.574758574758575,32.4103207569569
1743374345399,18:39:05.399,59,-1,1380.21978021978,0.574758574758575,32.4103207569569
1743374345418,18:39:05.418,59,-1,1360.43956043956,0.575202575202575,32.4103207569569
1743374345438,18:39:05.438,59,-1,1342.12454212454,0.575646575646576,32.4103207569569
1743374345457,18:39:05.457,59,-1,1327.47252747253,0.576090576090576,32.4103207569569
1743374345477,18:39:05.477,59,-1,1321.61172161172,0.576090576090576,32.4103207569569
1743374345496,18:39:05.496,59,-1,1330.40293040293,0.576534576534577,32.4103207569569
1743374345516,18:39:05.516,59,-1,1344.32234432234,0.576978576978577,32.4103207569569
1743374345535,18:39:05.535,59,-1,1345.05494505494,0.576978576978577,32.4103207569569
1743374345555,18:39:05.555,59,-1,1331.86813186813,0.577422577422577,32.4103207569569
1743374345574,18:39:05.574,59,-1,1317.21611721612,0.577866577866578,32.4103207569569
1743374345594,18:39:05.594,59,-1,1304.0293040293,0.577866577866578,32.4103207569569
1743374345613,18:39:05.613,59,-1,1287.17948717949,0.578310578310578,32.4103207569569
1743374345633,18:39:05.633,59,-1,1271.06227106227,0.578754578754579,32.4103207569569
1743374345652,18:39:05.652,59,-1,1258.60805860806,0.579198579198579,32.4103207569569
1743374345672,18:39:05.672,59,-1,1248.35164835165,0.57964257964258,32.4103207569569
1743374345691,18:39:05.691,59,-1,1238.09523809524,0.58008658008658,32.4103207569569
1743374345711,18:39:05.711,59,-1,1234.43223443223,0.580974580974581,32.4103207569569
1743374345730,18:39:05.730,59,-1,1241.75824175824,0.581418581418581,32.4103207569569
1743374345750,18:39:05.750,59,-1,1242.49084249084,0.581418581418581,32.4103207569569
1743374345769,18:39:05.769,59,-1,1239.56043956044,0.581862581862582,32.4103207569569
1743374345789,18:39:05.789,59,-1,1246.15384615385,0.582306582306582,32.4103207569569
1743374345808,18:39:05.808,59,-1,1243.22344322344,0.582750582750583,32.4103207569569
1743374345828,18:39:05.828,59,-1,1238.82783882784,0.583194583194583,32.4103207569569
1743374345847,18:39:05.847,59,-1,1243.95604395604,0.583638583638584,32.4103207569569
1743374345867,18:39:05.867,59,-1,1249.08424908425,0.584970584970585,32.4103207569569
1743374345886,18:39:05.886,59,-1,1242.49084249084,0.585414585414585,32.4103207569569
1743374345906,18:39:05.906,59,-1,1230.76923076923,0.586302586302586,32.4103207569569
1743374345925,18:39:05.925,59,-1,1221.24542124542,0.587190587190587,32.4103207569569
1743374345945,18:39:05.945,59,-1,1210.25641025641,0.588522588522589,32.4103207569569
1743374345964,18:39:05.964,59,-1,1205.86080586081,0.589410589410589,32.4103207569569
1743374345984,18:39:05.984,59,-1,1206.59340659341,0.590742590742591,32.4103207569569
1743374346003,18:39:06.003,59,-1,1204.3956043956,0.591186591186591,32.4103207569569
1743374346023,18:39:06.023,59,-1,1217.58241758242,0.590742590742591,32.4103207569569
1743374346042,18:39:06.042,59,-1,1236.63003663004,0.58985458985459,32.4103207569569
1743374346062,18:39:06.062,59,-1,1244.68864468864,0.59029859029859,32.4103207569569
1743374346081,18:39:06.081,59,-1,1239.56043956044,0.590742590742591,32.4103207569569
1743374346101,18:39:06.101,59,-1,1243.22344322344,0.591186591186591,32.4103207569569
1743374346120,18:39:06.120,59,-1,1264.46886446886,0.591186591186591,32.4103207569569
1743374346140,18:39:06.140,59,-1,1301.0989010989,0.591630591630592,32.4103207569569
1743374346159,18:39:06.159,59,-1,1337.72893772894,0.592074592074592,32.4103207569569
1743374346179,18:39:06.179,59,-1,1369.23076923077,0.592518592518593,32.4453522580443
1743374346198,18:39:06.198,59,-1,1398.5347985348,0.593406593406593,32.4453522580443
1743374346218,18:39:06.218,59,-1,1438.82783882784,0.593406593406593,32.4453522580443
1743374346237,18:39:06.237,64,-1,1468.86446886447,0.593406593406593,32.4453522580443
1743374346257,18:39:06.257,64,-1,1471.06227106227,0.593850593850594,32.4453522580443
1743374346276,18:39:06.276,64,-1,1458.60805860806,0.594294594294594,32.4453522580443
1743374346296,18:39:06.296,64,-1,1453.47985347985,0.595182595182595,32.4453522580443
1743374346315,18:39:06.315,64,-1,1454.21245421245,0.595626595626596,32.4453522580443
1743374346335,18:39:06.335,64,-1,1464.46886446886,0.595626595626596,32.4453522580443
1743374346354,18:39:06.354,64,-1,1472.52747252747,0.596070596070596,32.4453522580443
1743374346374,18:39:06.374,64,-1,1458.60805860806,0.596070596070596,32.4453522580443
1743374346393,18:39:06.393,64,-1,1438.09523809524,0.596514596514596,32.4453522580443
1743374346413,18:39:06.413,64,-1,1418.31501831502,0.596514596514596,32.4453522580443
1743374346432,18:39:06.432,64,-1,1399.2673992674,0.596958596958597,32.4453522580443
1743374346452,18:39:06.452,64,-1,1394.87179487179,0.596958596958597,32.4453522580443
1743374346471,18:39:06.471,64,-1,1391.20879120879,0.597402597402597,32.4453522580443
1743374346491,18:39:06.491,64,-1,1371.42857142857,0.597402597402597,32.4453522580443
1743374346510,18:39:06.510,64,-1,1368.49816849817,0.597846597846598,32.4453522580443
1743374346530,18:39:06.530,64,-1,1376.55677655678,0.597846597846598,32.4453522580443
1743374346549,18:39:06.549,64,-1,1361.17216117216,0.598290598290598,32.4453522580443
1743374346569,18:39:06.569,64,-1,1346.52014652015,0.598290598290598,32.4453522580443
1743374346588,18:39:06.588,64,-1,1328.93772893773,0.598290598290598,32.4453522580443
1743374346608,18:39:06.608,64,-1,1321.61172161172,0.598734598734599,32.4453522580443
1743374346627,18:39:06.627,64,-1,1323.80952380952,0.598734598734599,32.4453522580443
1743374346647,18:39:06.647,64,-1,1315.75091575092,0.599178599178599,32.4453522580443
1743374346666,18:39:06.666,64,-1,1306.95970695971,0.5996225996226,32.4453522580443
1743374346686,18:39:06.686,64,-1,1300.3663003663,0.5996225996226,32.4453522580443
1743374346705,18:39:06.705,64,-1,1294.50549450549,0.6000666000666,32.4453522580443
1743374346725,18:39:06.725,64,-1,1287.91208791209,0.6000666000666,32.4453522580443
1743374346744,18:39:06.744,64,-1,1280.58608058608,0.6000666000666,32.4453522580443
1743374346764,18:39:06.764,64,-1,1273.99267399267,0.6000666000666,32.4453522580443
1743374346783,18:39:06.783,64,-1,1282.05128205128,0.6005106005106,32.4453522580443
1743374346803,18:39:06.803,64,-1,1273.99267399267,0.6005106005106,32.4453522580443
1743374346822,18:39:06.822,64,-1,1264.46886446886,0.6005106005106,32.4453522580443
1743374346842,18:39:06.842,64,-1,1266.66666666667,0.6005106005106,32.4453522580443
1743374346861,18:39:06.861,64,-1,1273.26007326007,0.6005106005106,32.4453522580443
1743374346881,18:39:06.881,64,-1,1273.99267399267,0.6005106005106,32.4453522580443
1743374346900,18:39:06.900,64,-1,1270.32967032967,0.6005106005106,32.4453522580443
1743374346920,18:39:06.920,64,-1,1262.27106227106,0.6005106005106,32.4453522580443
1743374346939,18:39:06.939,64,-1,1262.27106227106,0.6005106005106,32.4453522580443
1743374346959,18:39:06.959,64,-1,1257.14285714286,0.600954600954601,32.4453522580443
1743374346978,18:39:06.978,64,-1,1245.42124542125,0.602286602286602,32.4453522580443
1743374346998,18:39:06.998,64,-1,1232.23443223443,0.602286602286602,32.4453522580443
1743374347017,18:39:07.017,64,-1,1241.75824175824,0.602730602730603,32.4453522580443
1743374347037,18:39:07.037,64,-1,1247.61904761905,0.603174603174603,32.4453522580443
1743374347056,18:39:07.056,64,-1,1231.50183150183,0.603618603618604,32.4453522580443
1743374347076,18:39:07.076,64,-1,1224.90842490842,0.603618603618604,32.4453522580443
1743374347095,18:39:07.095,64,-1,1252.01465201465,0.603618603618604,32.4453522580443
1743374347115,18:39:07.115,64,-1,1286.44688644689,0.603618603618604,32.4453522580443
1743374347134,18:39:07.134,64,-1,1334.79853479853,0.603618603618604,32.4453522580443
1743374347154,18:39:07.154,64,-1,1391.20879120879,0.603618603618604,32.4453522580443
1743374347173,18:39:07.173,67,-1,1427.10622710623,0.604062604062604,32.4603656711988
1743374347193,18:39:07.193,67,-1,1448.35164835165,0.604062604062604,32.4603656711988
1743374347213,18:39:07.212,67,-1,1478.38827838828,0.611610611610612,32.4603656711988
1743374347232,18:39:07.232,67,-1,1501.0989010989,0.62004662004662,32.4603656711988
1743374347252,18:39:07.251,67,-1,1520.14652014652,0.621378621378621,32.4603656711988
1743374347271,18:39:07.271,67,-1,1527.47252747253,0.622266622266622,32.4603656711988
1743374347291,18:39:07.290,67,-1,1529.67032967033,0.622710622710623,32.4603656711988
1743374347310,18:39:07.310,67,-1,1540.65934065934,0.622710622710623,32.4603656711988
1743374347330,18:39:07.330,67,-1,1545.05494505494,0.623154623154623,32.4603656711988
1743374347349,18:39:07.349,67,-1,1555.31135531136,0.623598623598624,32.4603656711988
1743374347369,18:39:07.369,67,-1,1547.98534798535,0.624042624042624,32.4603656711988
1743374347388,18:39:07.388,67,-1,1526.73992673993,0.624486624486625,32.4603656711988
1743374347408,18:39:07.408,67,-1,1514.28571428571,0.624486624486625,32.4603656711988
1743374347427,18:39:07.427,67,-1,1495.2380952381,0.624930624930625,32.4603656711988
1743374347447,18:39:07.447,67,-1,1480.58608058608,0.625374625374625,32.4603656711988
1743374347466,18:39:07.466,67,-1,1475.45787545788,0.624930624930625,32.4603656711988
1743374347486,18:39:07.486,67,-1,1463.00366300366,0.624486624486625,32.4603656711988
1743374347505,18:39:07.505,67,-1,1454.94505494505,0.625374625374625,32.4603656711988
1743374347525,18:39:07.525,67,-1,1452.74725274725,0.625818625818626,32.4603656711988
1743374347544,18:39:07.544,67,-1,1452.01465201465,0.626262626262626,32.4603656711988
1743374347564,18:39:07.564,67,-1,1460.07326007326,0.626706626706627,32.4603656711988
1743374347583,18:39:07.583,67,-1,1448.35164835165,0.626706626706627,32.4603656711988
1743374347603,18:39:07.603,67,-1,1433.69963369963,0.627594627594628,32.4603656711988
1743374347622,18:39:07.622,67,-1,1417.58241758242,0.628038628038628,32.4603656711988
1743374347642,18:39:07.642,67,-1,1389.74358974359,0.628038628038628,32.4603656711988
1743374347661,18:39:07.661,67,-1,1370.69597069597,0.628482628482628,32.4603656711988
1743374347681,18:39:07.681,67,-1,1358.97435897436,0.628926628926629,32.4603656711988
1743374347700,18:39:07.700,67,-1,1339.19413919414,0.628926628926629,32.4603656711988
1743374347720,18:39:07.720,67,-1,1324.54212454212,0.628926628926629,32.4603656711988
1743374347739,18:39:07.739,67,-1,1317.21611721612,0.629370629370629,32.4603656711988
1743374347759,18:39:07.759,67,-1,1309.15750915751,0.62981462981463,32.4603656711988
1743374347778,18:39:07.778,67,-1,1308.42490842491,0.632478632478632,32.4603656711988
1743374347798,18:39:07.798,67,-1,1324.54212454212,0.633810633810634,32.4603656711988
1743374347817,18:39:07.817,67,-1,1337.72893772894,0.635142635142635,32.4603656711988
1743374347837,18:39:07.837,67,-1,1326.73992673993,0.636474636474636,32.4603656711988
1743374347856,18:39:07.856,67,-1,1314.28571428571,0.637362637362637,32.4603656711988
1743374347876,18:39:07.876,67,-1,1309.15750915751,0.637362637362637,32.4603656711988
1743374347895,18:39:07.895,67,-1,1306.22710622711,0.638250638250638,32.4603656711988
1743374347915,18:39:07.915,67,-1,1294.50549450549,0.638694638694639,32.4603656711988
1743374347934,18:39:07.934,67,-1,1293.04029304029,0.638250638250638,32.4603656711988
1743374347954,18:39:07.954,67,-1,1291.57509157509,0.638694638694639,32.4603656711988
1743374347973,18:39:07.973,67,-1,1279.12087912088,0.639138639138639,32.4603656711988
1743374347993,18:39:07.993,67,-1,1270.32967032967,0.63958263958264,32.4603656711988
1743374348012,18:39:08.012,67,-1,1273.99267399267,0.639138639138639,32.4603656711988
1743374348032,18:39:08.032,67,-1,1276.92307692308,0.639138639138639,32.4603656711988
1743374348051,18:39:08.051,67,-1,1304.0293040293,0.63958263958264,32.4603656711988
1743374348071,18:39:08.071,67,-1,1356.77655677656,0.64002664002664,32.4603656711988
1743374348090,18:39:08.090,67,-1,1430.03663003663,0.64002664002664,32.4603656711988
1743374348110,18:39:08.110,67,-1,1504.0293040293,0.64002664002664,32.4603656711988
1743374348129,18:39:08.129,67,-1,1574.35897435897,0.64002664002664,32.4603656711988
1743374348149,18:39:08.149,67,-1,1631.50183150183,0.64047064047064,32.4603656711988
1743374348168,18:39:08.168,64,-1,1683.51648351648,0.640914640914641,32.4903923403472
1743374348188,18:39:08.188,64,-1,1712.08791208791,0.641358641358641,32.4903923403472
1743374348207,18:39:08.207,64,-1,1723.80952380952,0.641358641358641,32.4903923403472
1743374348227,18:39:08.227,64,-1,1723.07692307692,0.641802641802642,32.4903923403472
1743374348246,18:39:08.246,64,-1,1710.62271062271,0.642246642246642,32.4903923403472
1743374348266,18:39:08.266,64,-1,1704.0293040293,0.642246642246642,32.4903923403472
1743374348285,18:39:08.285,64,-1,1686.44688644689,0.642690642690643,32.4903923403472
1743374348305,18:39:08.305,64,-1,1654.94505494505,0.642690642690643,32.4903923403472
1743374348324,18:39:08.324,64,-1,1630.03663003663,0.643578643578643,32.4903923403472
1743374348344,18:39:08.344,64,-1,1606.59340659341,0.644022644022644,32.4903923403472
1743374348363,18:39:08.363,64,-1,1591.94139194139,0.644022644022644,32.4903923403472
1743374348383,18:39:08.383,64,-1,1581.68498168498,0.644466644466644,32.4903923403472
1743374348402,18:39:08.402,64,-1,1575.82417582418,0.644466644466644,32.4903923403472
1743374348422,18:39:08.422,64,-1,1576.55677655678,0.644466644466644,32.4903923403472
1743374348441,18:39:08.441,64,-1,1579.48717948718,0.644466644466644,32.4903923403472
1743374348461,18:39:08.461,64,-1,1571.42857142857,0.644910644910645,32.4903923403472
1743374348480,18:39:08.480,64,-1,1554.57875457875,0.644910644910645,32.4903923403472
1743374348500,18:39:08.500,64,-1,1536.26373626374,0.644910644910645,32.4903923403472
1743374348519,18:39:08.519,64,-1,1510.62271062271,0.644910644910645,32.4903923403472
1743374348539,18:39:08.539,64,-1,1483.51648351648,0.644910644910645,32.4903923403472
1743374348558,18:39:08.558,64,-1,1462.27106227106,0.644466644466644,32.4903923403472
1743374348578,18:39:08.578,64,-1,1442.49084249084,0.644910644910645,32.4903923403472
1743374348597,18:39:08.597,64,-1,1424.17582417582,0.644910644910645,32.4903923403472
1743374348617,18:39:08.617,64,-1,1419.04761904762,0.644910644910645,32.4903923403472
1743374348636,18:39:08.636,64,-1,1410.25641025641,0.644910644910645,32.4903923403472
1743374348656,18:39:08.656,64,-1,1397.8021978022,0.644910644910645,32.4903923403472
1743374348675,18:39:08.675,64,-1,1383.15018315018,0.644910644910645,32.4903923403472
1743374348695,18:39:08.695,64,-1,1376.55677655678,0.644910644910645,32.4903923403472
1743374348714,18:39:08.714,64,-1,1373.62637362637,0.644910644910645,32.4903923403472
1743374348734,18:39:08.734,64,-1,1373.62637362637,0.644910644910645,32.4903923403472
1743374348753,18:39:08.753,64,-1,1382.41758241758,0.644466644466644,32.4903923403472
1743374348773,18:39:08.773,64,-1,1377.28937728938,0.645354645354645,32.4903923403472
1743374348792,18:39:08.792,64,-1,1376.55677655678,0.645354645354645,32.4903923403472
1743374348812,18:39:08.812,64,-1,1375.09157509157,0.645354645354645,32.4903923403472
1743374348831,18:39:08.831,64,-1,1368.49816849817,0.645354645354645,32.4903923403472
1743374348851,18:39:08.851,64,-1,1397.8021978022,0.645354645354645,32.4903923403472
1743374348870,18:39:08.870,64,-1,1465.20146520146,0.645354645354645,32.4903923403472
1743374348890,18:39:08.890,64,-1,1558.24175824176,0.650682650682651,32.4903923403472
1743374348909,18:39:08.909,64,-1,1667.39926739927,0.656010656010656,32.4903923403472
1743374348929,18:39:08.929,64,-1,1769.96336996337,0.656454656454656,32.4903923403472
1743374348948,18:39:08.948,64,-1,1854.94505494505,0.655566655566655,32.4903923403472
1743374348968,18:39:08.968,64,-1,1896.7032967033,0.655122655122655,32.4903923403472
1743374348987,18:39:08.987,64,-1,1908.42490842491,0.655122655122655,32.4903923403472
1743374349007,18:39:09.007,64,-1,1918.68131868132,0.654678654678655,32.4903923403472
1743374349026,18:39:09.026,64,-1,1938.46153846154,0.655122655122655,32.4903923403472
1743374349046,18:39:09.046,64,-1,1957.50915750916,0.654678654678655,32.4903923403472
1743374349065,18:39:09.065,64,-1,1949.45054945055,0.655122655122655,32.4903923403472
1743374349085,18:39:09.085,64,-1,1930.40293040293,0.654678654678655,32.4903923403472
1743374349104,18:39:09.104,64,-1,1898.1684981685,0.654678654678655,32.4903923403472
1743374349124,18:39:09.124,64,-1,1844.68864468864,0.655122655122655,32.4903923403472
1743374349143,18:39:09.143,64,-1,1787.54578754579,0.655566655566655,32.4903923403472
1743374349163,18:39:09.163,64,-1,1737.72893772894,0.656010656010656,32.5104100033641
1743374349182,18:39:09.182,64,-1,1706.95970695971,0.656010656010656,32.5104100033641
1743374349202,18:39:09.202,60,-1,1695.2380952381,0.659562659562659,32.5104100033641
1743374349221,18:39:09.221,60,-1,1685.71428571429,0.66045066045066,32.5104100033641
1743374349241,18:39:09.241,60,-1,1671.06227106227,0.66045066045066,32.5104100033641
1743374349260,18:39:09.260,60,-1,1643.95604395604,0.660894660894661,32.5104100033641
1743374349280,18:39:09.280,60,-1,1622.71062271062,0.660894660894661,32.5104100033641
1743374349299,18:39:09.299,60,-1,1595.6043956044,0.660894660894661,32.5104100033641
1743374349319,18:39:09.319,60,-1,1565.56776556777,0.661338661338661,32.5104100033641
1743374349338,18:39:09.338,60,-1,1541.39194139194,0.661338661338661,32.5104100033641
1743374349358,18:39:09.358,60,-1,1521.61172161172,0.661782661782662,32.5104100033641
1743374349377,18:39:09.377,60,-1,1495.9706959707,0.661782661782662,32.5104100033641
1743374349397,18:39:09.397,60,-1,1476.19047619048,0.66045066045066,32.5104100033641
1743374349416,18:39:09.416,60,-1,1454.21245421245,0.66000666000666,32.5104100033641
1743374349436,18:39:09.436,60,-1,1438.82783882784,0.659118659118659,32.5104100033641
1743374349455,18:39:09.455,60,-1,1430.03663003663,0.658230658230658,32.5104100033641
1743374349475,18:39:09.475,60,-1,1411.72161172161,0.656898656898657,32.5104100033641
1743374349494,18:39:09.494,60,-1,1389.01098901099,0.656898656898657,32.5104100033641
1743374349514,18:39:09.514,60,-1,1378.02197802198,0.657342657342657,32.5104100033641
1743374349533,18:39:09.533,60,-1,1371.42857142857,0.656898656898657,32.5104100033641
1743374349553,18:39:09.553,60,-1,1369.23076923077,0.656454656454656,32.5104100033641
1743374349572,18:39:09.572,60,-1,1356.77655677656,0.656010656010656,32.5104100033641
1743374349592,18:39:09.592,60,-1,1333.33333333333,0.655566655566655,32.5104100033641
1743374349611,18:39:09.611,60,-1,1314.28571428571,0.655122655122655,32.5104100033641
1743374349631,18:39:09.631,60,-1,1308.42490842491,0.655122655122655,32.5104100033641
1743374349650,18:39:09.650,60,-1,1295.9706959707,0.654678654678655,32.5104100033641
1743374349670,18:39:09.670,60,-1,1291.57509157509,0.654234654234654,32.5104100033641
1743374349689,18:39:09.689,60,-1,1280.58608058608,0.653790653790654,32.5104100033641
1743374349709,18:39:09.709,60,-1,1286.44688644689,0.654234654234654,32.5104100033641
1743374349728,18:39:09.728,60,-1,1308.42490842491,0.653790653790654,32.5104100033641
1743374349748,18:39:09.748,60,-1,1356.77655677656,0.653346653346653,32.5104100033641
1743374349767,18:39:09.767,60,-1,1460.07326007326,0.653790653790654,32.5104100033641
1743374349787,18:39:09.787,60,-1,1599.2673992674,0.655566655566655,32.5104100033641
1743374349806,18:39:09.806,60,-1,1748.71794871795,0.656898656898657,32.5104100033641
1743374349826,18:39:09.826,60,-1,1852.01465201465,0.657342657342657,32.5104100033641
1743374349845,18:39:09.845,60,-1,1915.75091575092,0.657342657342657,32.5104100033641
1743374349865,18:39:09.865,60,-1,1957.50915750916,0.656898656898657,32.5104100033641
1743374349884,18:39:09.884,60,-1,1978.75457875458,0.657342657342657,32.5104100033641
1743374349904,18:39:09.904,60,-1,1996.336996337,0.656898656898657,32.5104100033641
1743374349923,18:39:09.923,60,-1,2008.05860805861,0.656898656898657,32.5104100033641
1743374349943,18:39:09.943,60,-1,2015.38461538462,0.656454656454656,32.5104100033641
1743374349962,18:39:09.962,60,-1,2009.52380952381,0.656898656898657,32.5104100033641
1743374349982,18:39:09.982,60,-1,1980.21978021978,0.656898656898657,32.5104100033641
1743374350001,18:39:10.001,60,-1,1923.80952380952,0.656454656454656,32.5104100033641
1743374350021,18:39:10.021,60,-1,1845.42124542125,0.656454656454656,32.5104100033641
1743374350040,18:39:10.040,60,-1,1776.55677655678,0.656454656454656,32.5104100033641
1743374350060,18:39:10.060,60,-1,1722.34432234432,0.656898656898657,32.5104100033641
1743374350079,18:39:10.079,60,-1,1671.79487179487,0.656898656898657,32.5104100033641
1743374350099,18:39:10.099,60,-1,1630.76923076923,0.656898656898657,32.5104100033641
1743374350118,18:39:10.118,60,-1,1608.79120879121,0.656898656898657,32.5104100033641
1743374350138,18:39:10.138,60,-1,1584.61538461538,0.656454656454656,32.5104100033641
1743374350157,18:39:10.157,60,-1,1561.90476190476,0.656898656898657,32.5404363232665
1743374350177,18:39:10.177,60,-1,1526.73992673993,0.656898656898657,32.5404363232665
1743374350196,18:39:10.196,60,-1,1490.10989010989,0.657342657342657,32.5404363232665
1743374350216,18:39:10.216,58,-1,1455.67765567766,0.656898656898657,32.5404363232665
1743374350235,18:39:10.235,58,-1,1417.58241758242,0.656898656898657,32.5404363232665
1743374350255,18:39:10.255,58,-1,1386.08058608059,0.657342657342657,32.5404363232665
1743374350274,18:39:10.274,58,-1,1363.36996336996,0.657786657786658,32.5404363232665
1743374350294,18:39:10.294,58,-1,1347.98534798535,0.658230658230658,32.5404363232665
1743374350313,18:39:10.313,58,-1,1309.89010989011,0.658674658674659,32.5404363232665
1743374350333,18:39:10.333,58,-1,1277.65567765568,0.658230658230658,32.5404363232665
1743374350352,18:39:10.352,58,-1,1268.86446886447,0.658674658674659,32.5404363232665
1743374350372,18:39:10.372,58,-1,1268.13186813187,0.658674658674659,32.5404363232665
1743374350391,18:39:10.391,58,-1,1253.47985347985,0.658674658674659,32.5404363232665
1743374350411,18:39:10.411,58,-1,1243.95604395604,0.658674658674659,32.5404363232665
1743374350430,18:39:10.430,58,-1,1236.63003663004,0.658674658674659,32.5404363232665
1743374350450,18:39:10.450,58,-1,1233.69963369963,0.658674658674659,32.5404363232665
1743374350469,18:39:10.469,58,-1,1226.37362637363,0.658674658674659,32.5404363232665
1743374350489,18:39:10.489,58,-1,1221.24542124542,0.658230658230658,32.5404363232665
1743374350508,18:39:10.508,58,-1,1215.38461538462,0.658230658230658,32.5404363232665
1743374350528,18:39:10.528,58,-1,1205.12820512821,0.658230658230658,32.5404363232665
1743374350547,18:39:10.547,58,-1,1210.25641025641,0.658230658230658,32.5404363232665
1743374350567,18:39:10.567,58,-1,1216.11721611722,0.658230658230658,32.5404363232665
1743374350586,18:39:10.586,58,-1,1206.59340659341,0.657786657786658,32.5404363232665
1743374350606,18:39:10.606,58,-1,1208.79120879121,0.657786657786658,32.5404363232665
1743374350625,18:39:10.625,58,-1,1240.29304029304,0.657786657786658,32.5404363232665
1743374350645,18:39:10.645,58,-1,1324.54212454212,0.657786657786658,32.5404363232665
1743374350664,18:39:10.664,58,-1,1446.88644688645,0.658230658230658,32.5404363232665
1743374350684,18:39:10.684,58,-1,1563.36996336996,0.658230658230658,32.5404363232665
1743374350703,18:39:10.703,58,-1,1654.94505494505,0.658230658230658,32.5404363232665
1743374350723,18:39:10.723,58,-1,1716.48351648352,0.657786657786658,32.5404363232665
1743374350742,18:39:10.742,58,-1,1758.97435897436,0.658230658230658,32.5404363232665
1743374350762,18:39:10.762,58,-1,1789.74358974359,0.657786657786658,32.5404363232665
1743374350781,18:39:10.781,58,-1,1795.6043956044,0.657786657786658,32.5404363232665
1743374350801,18:39:10.801,58,-1,1785.34798534799,0.657786657786658,32.5404363232665
1743374350820,18:39:10.820,58,-1,1761.90476190476,0.657786657786658,32.5404363232665
1743374350840,18:39:10.840,58,-1,1738.46153846154,0.657786657786658,32.5404363232665
1743374350859,18:39:10.859,58,-1,1704.7619047619,0.657786657786658,32.5404363232665
1743374350879,18:39:10.879,58,-1,1663.73626373626,0.657786657786658,32.5404363232665
1743374350898,18:39:10.898,58,-1,1614.65201465201,0.657786657786658,32.5404363232665
1743374350918,18:39:10.918,58,-1,1554.57875457875,0.657786657786658,32.5404363232665
1743374350937,18:39:10.937,58,-1,1506.95970695971,0.657786657786658,32.5404363232665
1743374350957,18:39:10.957,58,-1,1473.99267399267,0.657786657786658,32.5404363232665
1743374350976,18:39:10.976,58,-1,1443.95604395604,0.657786657786658,32.5404363232665
1743374350996,18:39:10.996,58,-1,1416.84981684982,0.657786657786658,32.5404363232665
1743374351015,18:39:11.015,58,-1,1407.32600732601,0.657786657786658,32.5404363232665
1743374351035,18:39:11.035,58,-1,1403.663003663,0.657786657786658,32.5404363232665
1743374351054,18:39:11.054,58,-1,1403.663003663,0.657786657786658,32.5404363232665
1743374351074,18:39:11.074,58,-1,1385.34798534799,0.657786657786658,32.5404363232665
1743374351093,18:39:11.093,58,-1,1350.18315018315,0.657786657786658,32.5404363232665
1743374351113,18:39:11.113,58,-1,1317.94871794872,0.657786657786658,32.5404363232665
1743374351132,18:39:11.132,58,-1,1268.86446886447,0.657786657786658,32.5404363232665
1743374351152,18:39:11.152,58,-1,1239.56043956044,0.657786657786658,32.5654580964474
1743374351171,18:39:11.171,58,-1,1235.16483516484,0.658674658674659,32.5654580964474
1743374351191,18:39:11.191,58,-1,1232.96703296703,0.659118659118659,32.5654580964474
1743374351210,18:39:11.210,58,-1,1226.37362637363,0.659118659118659,32.5654580964474
1743374351230,18:39:11.230,59,-1,1219.04761904762,0.659118659118659,32.5654580964474
1743374351249,18:39:11.249,59,-1,1204.3956043956,0.659562659562659,32.5654580964474
1743374351269,18:39:11.269,59,-1,1194.87179487179,0.659562659562659,32.5654580964474
1743374351288,18:39:11.288,59,-1,1191.20879120879,0.659562659562659,32.5654580964474
1743374351308,18:39:11.308,59,-1,1194.13919413919,0.659562659562659,32.5654580964474
1743374351327,18:39:11.327,59,-1,1186.08058608059,0.659562659562659,32.5654580964474
1743374351347,18:39:11.347,59,-1,1161.90476190476,0.659562659562659,32.5654580964474
1743374351366,18:39:11.366,59,-1,1139.19413919414,0.659562659562659,32.5654580964474
1743374351386,18:39:11.386,59,-1,1111.35531135531,0.659562659562659,32.5654580964474
1743374351405,18:39:11.405,59,-1,1094.50549450549,0.66000666000666,32.5654580964474
1743374351425,18:39:11.425,59,-1,1126.00732600733,0.66000666000666,32.5654580964474
1743374351444,18:39:11.444,59,-1,1201.4652014652,0.66045066045066,32.5654580964474
1743374351464,18:39:11.464,59,-1,1299.6336996337,0.66045066045066,32.5654580964474
1743374351483,18:39:11.483,59,-1,1403.663003663,0.66045066045066,32.5654580964474
1743374351503,18:39:11.503,59,-1,1491.57509157509,0.66045066045066,32.5654580964474
1743374351522,18:39:11.522,59,-1,1541.39194139194,0.66045066045066,32.5654580964474
1743374351542,18:39:11.542,59,-1,1569.96336996337,0.66045066045066,32.5654580964474
1743374351561,18:39:11.561,59,-1,1596.336996337,0.660894660894661,32.5654580964474
1743374351581,18:39:11.581,59,-1,1597.0695970696,0.660894660894661,32.5654580964474
1743374351600,18:39:11.600,59,-1,1596.336996337,0.66045066045066,32.5654580964474
1743374351620,18:39:11.620,59,-1,1591.94139194139,0.660894660894661,32.5654580964474
1743374351639,18:39:11.639,59,-1,1559.70695970696,0.660894660894661,32.5654580964474
1743374351659,18:39:11.659,59,-1,1524.54212454212,0.660894660894661,32.5654580964474
1743374351678,18:39:11.678,59,-1,1495.9706959707,0.660894660894661,32.5654580964474
1743374351698,18:39:11.698,59,-1,1463.73626373626,0.660894660894661,32.5654580964474
1743374351717,18:39:11.717,59,-1,1428.57142857143,0.660894660894661,32.5654580964474
1743374351737,18:39:11.737,59,-1,1390.47619047619,0.660894660894661,32.5654580964474
1743374351756,18:39:11.756,59,-1,1364.83516483516,0.660894660894661,32.5654580964474
1743374351776,18:39:11.776,59,-1,1353.84615384615,0.661338661338661,32.5654580964474
1743374351795,18:39:11.795,59,-1,1337.72893772894,0.661782661782662,32.5654580964474
1743374351815,18:39:11.815,59,-1,1311.35531135531,0.661782661782662,32.5654580964474
1743374351834,18:39:11.834,59,-1,1298.1684981685,0.661782661782662,32.5654580964474
1743374351854,18:39:11.854,59,-1,1295.9706959707,0.662226662226662,32.5654580964474
1743374351873,18:39:11.873,59,-1,1294.50549450549,0.662226662226662,32.5654580964474
1743374351893,18:39:11.893,59,-1,1279.85347985348,0.662670662670663,32.5654580964474
1743374351912,18:39:11.912,59,-1,1262.27106227106,0.663114663114663,32.5654580964474
1743374351932,18:39:11.932,59,-1,1239.56043956044,0.663114663114663,32.5654580964474
1743374351951,18:39:11.951,59,-1,1218.31501831502,0.663114663114663,32.5654580964474
1743374351971,18:39:11.971,59,-1,1200,0.663114663114663,32.5654580964474
1743374351990,18:39:11.990,59,-1,1189.74358974359,0.662670662670663,32.5654580964474
1743374352010,18:39:12.010,59,-1,1184.61538461538,0.661782661782662,32.5654580964474
1743374352029,18:39:12.029,59,-1,1186.08058608059,0.661338661338661,32.5654580964474
1743374352049,18:39:12.049,59,-1,1173.62637362637,0.661338661338661,32.5654580964474
1743374352068,18:39:12.068,59,-1,1151.64835164835,0.661338661338661,32.5654580964474
1743374352088,18:39:12.088,59,-1,1142.85714285714,0.661338661338661,32.5654580964474
1743374352107,18:39:12.107,59,-1,1149.45054945055,0.662226662226662,32.5654580964474
1743374352127,18:39:12.127,59,-1,1155.31135531136,0.662226662226662,32.5654580964474
1743374352146,18:39:12.146,59,-1,1148.71794871795,0.663558663558663,32.5904797241092
1743374352166,18:39:12.166,59,-1,1142.12454212454,0.663558663558663,32.5904797241092
1743374352185,18:39:12.185,59,-1,1143.58974358974,0.663558663558663,32.5904797241092
1743374352205,18:39:12.205,59,-1,1143.58974358974,0.664002664002664,32.5904797241092
1743374352224,18:39:12.224,59,-1,1172.89377289377,0.664446664446664,32.5904797241092
1743374352244,18:39:12.244,59,-1,1253.47985347985,0.664446664446664,32.5904797241092
1743374352263,18:39:12.263,59,-1,1331.86813186813,0.664446664446664,32.5904797241092
1743374352283,18:39:12.283,59,-1,1401.4652014652,0.664446664446664,32.5904797241092
1743374352302,18:39:12.302,59,-1,1445.42124542125,0.664446664446664,32.5904797241092
1743374352322,18:39:12.322,59,-1,1481.31868131868,0.664446664446664,32.5904797241092
1743374352341,18:39:12.341,59,-1,1498.9010989011,0.664890664890665,32.5904797241092
1743374352361,18:39:12.361,59,-1,1501.8315018315,0.664890664890665,32.5904797241092
1743374352380,18:39:12.380,59,-1,1517.21611721612,0.664890664890665,32.5904797241092
1743374352400,18:39:12.400,59,-1,1517.94871794872,0.664890664890665,32.5904797241092
1743374352419,18:39:12.419,59,-1,1507.69230769231,0.664890664890665,32.5904797241092
1743374352439,18:39:12.439,59,-1,1484.98168498168,0.664446664446664,32.5904797241092
1743374352458,18:39:12.458,59,-1,1460.07326007326,0.664446664446664,32.5904797241092
1743374352478,18:39:12.478,59,-1,1413.91941391941,0.664446664446664,32.5904797241092
1743374352497,18:39:12.497,59,-1,1371.42857142857,0.664446664446664,32.5904797241092
1743374352517,18:39:12.517,59,-1,1335.53113553114,0.664446664446664,32.5904797241092
1743374352536,18:39:12.536,59,-1,1320.14652014652,0.664446664446664,32.5904797241092
1743374352556,18:39:12.556,59,-1,1305.49450549451,0.664446664446664,32.5904797241092
1743374352575,18:39:12.575,59,-1,1302.5641025641,0.664446664446664,32.5904797241092
1743374352595,18:39:12.595,59,-1,1303.2967032967,0.664446664446664,32.5904797241092
1743374352614,18:39:12.614,59,-1,1277.65567765568,0.664446664446664,32.5904797241092
1743374352634,18:39:12.634,59,-1,1247.61904761905,0.664890664890665,32.5904797241092
1743374352653,18:39:12.653,59,-1,1235.89743589744,0.664890664890665,32.5904797241092
1743374352673,18:39:12.673,59,-1,1221.24542124542,0.664890664890665,32.5904797241092
1743374352692,18:39:12.692,59,-1,1189.74358974359,0.664890664890665,32.5904797241092
1743374352712,18:39:12.712,59,-1,1178.75457875458,0.664890664890665,32.5904797241092
1743374352731,18:39:12.731,59,-1,1163.36996336996,0.665334665334665,32.5904797241092
1743374352751,18:39:12.751,59,-1,1163.36996336996,0.665778665778666,32.5904797241092
1743374352770,18:39:12.770,59,-1,1176.55677655678,0.665778665778666,32.5904797241092
1743374352790,18:39:12.790,59,-1,1175.82417582418,0.665778665778666,32.5904797241092
1743374352809,18:39:12.809,59,-1,1164.10256410256,0.666222666222666,32.5904797241092
1743374352829,18:39:12.829,59,-1,1175.82417582418,0.666222666222666,32.5904797241092
1743374352848,18:39:12.848,59,-1,1190.47619047619,0.666222666222666,32.5904797241092
1743374352868,18:39:12.868,59,-1,1197.8021978022,0.666666666666667,32.5904797241092
1743374352887,18:39:12.887,59,-1,1194.87179487179,0.668886668886669,32.5904797241092
1743374352907,18:39:12.907,59,-1,1175.09157509158,0.66977466977467,32.5904797241092
1743374352926,18:39:12.926,59,-1,1161.17216117216,0.67021867021867,32.5904797241092
1743374352946,18:39:12.946,65,-1,1154.57875457875,0.670662670662671,32.5904797241092
1743374352965,18:39:12.965,65,-1,1148.71794871795,0.670662670662671,32.5904797241092
1743374352985,18:39:12.985,65,-1,1151.64835164835,0.670662670662671,32.5904797241092
1743374353004,18:39:13.004,65,-1,1170.69597069597,0.670662670662671,32.5904797241092
1743374353024,18:39:13.024,65,-1,1197.0695970696,0.671106671106671,32.5904797241092
1743374353043,18:39:13.043,65,-1,1230.76923076923,0.671106671106671,32.5904797241092
1743374353063,18:39:13.063,65,-1,1282.78388278388,0.671106671106671,32.5904797241092
1743374353082,18:39:13.082,65,-1,1334.06593406593,0.670662670662671,32.5904797241092
1743374353102,18:39:13.102,65,-1,1372.89377289377,0.671106671106671,32.5904797241092
1743374353121,18:39:13.121,65,-1,1387.54578754579,0.671106671106671,32.5904797241092
1743374353141,18:39:13.141,65,-1,1393.40659340659,0.671106671106671,32.6155012062518
1743374353160,18:39:13.160,65,-1,1400.7326007326,0.671106671106671,32.6155012062518
1743374353180,18:39:13.180,65,-1,1419.78021978022,0.670662670662671,32.6155012062518
1743374353199,18:39:13.199,65,-1,1424.90842490842,0.670662670662671,32.6155012062518
1743374353219,18:39:13.219,65,-1,1419.78021978022,0.670662670662671,32.6155012062518
1743374353238,18:39:13.238,65,-1,1408.79120879121,0.670662670662671,32.6155012062518
1743374353258,18:39:13.258,65,-1,1392.67399267399,0.670662670662671,32.6155012062518
1743374353277,18:39:13.277,65,-1,1360.43956043956,0.670662670662671,32.6155012062518
1743374353297,18:39:13.297,65,-1,1324.54212454212,0.67021867021867,32.6155012062518
1743374353316,18:39:13.316,65,-1,1300.3663003663,0.67021867021867,32.6155012062518
1743374353336,18:39:13.336,65,-1,1293.77289377289,0.67021867021867,32.6155012062518
1743374353355,18:39:13.355,65,-1,1295.9706959707,0.67021867021867,32.6155012062518
1743374353375,18:39:13.375,65,-1,1306.22710622711,0.67021867021867,32.6155012062518
1743374353394,18:39:13.394,65,-1,1312.82051282051,0.67021867021867,32.6155012062518
1743374353414,18:39:13.414,65,-1,1309.15750915751,0.67021867021867,32.6155012062518
1743374353433,18:39:13.433,65,-1,1304.0293040293,0.67021867021867,32.6155012062518
1743374353453,18:39:13.453,65,-1,1300.3663003663,0.67021867021867,32.6155012062518
1743374353472,18:39:13.472,65,-1,1287.17948717949,0.67021867021867,32.6155012062518
1743374353492,18:39:13.492,65,-1,1268.86446886447,0.67021867021867,32.6155012062518
1743374353511,18:39:13.511,65,-1,1249.08424908425,0.67021867021867,32.6155012062518
1743374353531,18:39:13.531,65,-1,1224.17582417582,0.67021867021867,32.6155012062518
1743374353550,18:39:13.550,65,-1,1205.86080586081,0.66977466977467,32.6155012062518
1743374353570,18:39:13.570,65,-1,1191.20879120879,0.671106671106671,32.6155012062518
1743374353589,18:39:13.589,65,-1,1198.5347985348,0.672882672882673,32.6155012062518
1743374353609,18:39:13.609,65,-1,1195.6043956044,0.673326673326673,32.6155012062518
1743374353628,18:39:13.628,65,-1,1190.47619047619,0.673770673770674,32.6155012062518
1743374353648,18:39:13.648,65,-1,1180.95238095238,0.673770673770674,32.6155012062518
1743374353667,18:39:13.667,65,-1,1179.48717948718,0.673326673326673,32.6155012062518
1743374353687,18:39:13.687,65,-1,1187.54578754579,0.673770673770674,32.6155012062518
1743374353706,18:39:13.706,65,-1,1182.41758241758,0.673770673770674,32.6155012062518
1743374353726,18:39:13.726,65,-1,1186.81318681319,0.673770673770674,32.6155012062518
1743374353745,18:39:13.745,65,-1,1183.88278388278,0.673770673770674,32.6155012062518
1743374353765,18:39:13.765,65,-1,1175.82417582418,0.673770673770674,32.6155012062518
1743374353784,18:39:13.784,65,-1,1171.42857142857,0.674214674214674,32.6155012062518
1743374353804,18:39:13.804,65,-1,1172.89377289377,0.674658674658675,32.6155012062518
1743374353823,18:39:13.823,65,-1,1177.28937728938,0.674658674658675,32.6155012062518
1743374353843,18:39:13.843,75,-1,1216.84981684982,0.674658674658675,32.6155012062518
1743374353862,18:39:13.862,75,-1,1263.00366300366,0.674658674658675,32.6155012062518
1743374353882,18:39:13.882,75,-1,1294.50549450549,0.674214674214674,32.6155012062518
1743374353901,18:39:13.901,75,-1,1327.47252747253,0.674214674214674,32.6155012062518
1743374353921,18:39:13.921,75,-1,1355.31135531136,0.674214674214674,32.6155012062518
1743374353940,18:39:13.940,75,-1,1375.09157509157,0.674658674658675,32.6155012062518
1743374353960,18:39:13.960,75,-1,1394.13919413919,0.674658674658675,32.6155012062518
1743374353979,18:39:13.979,75,-1,1405.86080586081,0.674658674658675,32.6155012062518
1743374353999,18:39:13.999,75,-1,1409.52380952381,0.674658674658675,32.6155012062518
1743374354018,18:39:14.018,75,-1,1405.12820512821,0.674658674658675,32.6155012062518
1743374354038,18:39:14.038,75,-1,1406.59340659341,0.674658674658675,32.6155012062518
1743374354057,18:39:14.057,75,-1,1397.8021978022,0.674658674658675,32.6155012062518
1743374354077,18:39:14.077,75,-1,1376.55677655678,0.674658674658675,32.6155012062518
1743374354096,18:39:14.096,75,-1,1356.77655677656,0.674658674658675,32.6155012062518
1743374354116,18:39:14.116,75,-1,1338.46153846154,0.674214674214674,32.6155012062518
1743374354135,18:39:14.135,75,-1,1342.85714285714,0.674214674214674,32.6305140256882
1743374354155,18:39:14.155,75,-1,1336.99633699634,0.674214674214674,32.6305140256882
1743374354174,18:39:14.174,75,-1,1325.27472527473,0.674214674214674,32.6305140256882
