RawTimestamp,LocalTime,HeartRate,PPG,GSR,Temperature
1743285215135,17:53:35.135,-1,0,2.37728937728938,26.4608428180218
1743285215154,17:53:35.154,-1,0,2.37728937728938,26.4608428180218
1743285215174,17:53:35.174,-1,0,3.00694330545077,26.4608428180218
1743285215193,17:53:35.193,-1,0,3.00694330545077,26.4608428180218
1743285215213,17:53:35.213,-1,0,3.00694330545077,26.4608428180218
1743285215232,17:53:35.232,-1,0,3.00694330545077,26.4608428180218
1743285215252,17:53:35.252,-1,0,3.00694330545077,26.4608428180218
1743285215271,17:53:35.271,-1,0,2.98911309364271,26.4608428180218
1743285215291,17:53:35.291,-1,0,2.98911309364271,26.4608428180218
1743285215310,17:53:35.310,-1,0,2.98911309364271,26.4608428180218
1743285215330,17:53:35.330,-1,0,2.98911309364271,26.4608428180218
1743285215349,17:53:35.349,-1,0,2.98911309364271,26.4608428180218
1743285215369,17:53:35.369,-1,0,2.99120879120879,26.4608428180218
1743285215388,17:53:35.388,-1,0,2.99267399267399,26.4608428180218
1743285215408,17:53:35.408,-1,0,2.99267399267399,26.4608428180218
1743285215427,17:53:35.427,-1,0,2.99120879120879,26.4608428180218
1743285215447,17:53:35.447,-1,0,2.99267399267399,26.4608428180218
1743285215466,17:53:35.466,-1,0,2.99267399267399,26.4608428180218
1743285215486,17:53:35.486,-1,0,2.99267399267399,26.4608428180218
1743285215505,17:53:35.505,-1,0,2.99267399267399,26.4608428180218
1743285215525,17:53:35.525,-1,0,2.99120879120879,26.4608428180218
1743285215544,17:53:35.544,-1,0,2.99120879120879,26.4608428180218
1743285215564,17:53:35.564,-1,0,2.99120879120879,26.4608428180218
1743285215583,17:53:35.583,-1,0,2.98974358974359,26.4608428180218
1743285215603,17:53:35.603,-1,0,2.98974358974359,26.4608428180218
1743285215622,17:53:35.622,-1,0,2.98974358974359,26.4608428180218
1743285215642,17:53:35.642,-1,0,2.98827838827839,26.4608428180218
1743285215661,17:53:35.661,-1,0,2.98827838827839,26.4608428180218
1743285215681,17:53:35.681,-1,0,2.98827838827839,26.4608428180218
1743285215700,17:53:35.700,-1,0,2.98827838827839,26.4608428180218
1743285215720,17:53:35.720,-1,0,2.98681318681319,26.4608428180218
1743285215739,17:53:35.739,-1,0,2.98681318681319,26.4608428180218
1743285215759,17:53:35.759,-1,0,2.98681318681319,26.4608428180218
1743285215778,17:53:35.778,-1,0,2.98534798534799,26.4608428180218
1743285215798,17:53:35.798,-1,0,2.98534798534799,26.4608428180218
1743285215817,17:53:35.817,-1,0,2.98534798534799,26.4608428180218
1743285215837,17:53:35.837,-1,0,2.98388278388278,26.4608428180218
1743285215856,17:53:35.856,-1,0,2.98241758241758,26.4608428180218
1743285215876,17:53:35.876,-1,0,2.98241758241758,26.4608428180218
1743285215895,17:53:35.895,-1,0,2.98241758241758,26.4608428180218
1743285215915,17:53:35.915,-1,0,2.98241758241758,26.4608428180218
1743285215934,17:53:35.934,-1,0,2.98241758241758,26.4608428180218
1743285215954,17:53:35.954,-1,0,2.98241758241758,26.4608428180218
1743285215973,17:53:35.973,-1,0,2.98095238095238,26.4608428180218
1743285215993,17:53:35.993,-1,0,2.97948717948718,26.4608428180218
1743285216012,17:53:36.012,-1,0,2.97802197802198,26.4608428180218
1743285216032,17:53:36.032,-1,0,2.97802197802198,26.4608428180218
1743285216051,17:53:36.051,-1,0,2.97802197802198,32.7255939989118
1743285216071,17:53:36.071,-1,0,2.97655677655678,32.7255939989118
1743285216090,17:53:36.090,-1,0,2.97509157509157,32.7255939989118
1743285216110,17:53:36.110,-1,0,2.97362637362637,32.7255939989118
1743285216129,17:53:36.129,-1,0,2.97216117216117,32.7255939989118
1743285216149,17:53:36.149,-1,0,2.97069597069597,32.7255939989118
1743285216168,17:53:36.168,-1,0,2.97069597069597,32.7255939989118
1743285216188,17:53:36.188,-1,0,2.96923076923077,32.7255939989118
1743285216207,17:53:36.207,-1,0,2.96630036630037,32.7255939989118
1743285216227,17:53:36.227,-1,0,2.96483516483516,32.7255939989118
1743285216246,17:53:36.246,-1,241.758241758242,2.96336996336996,32.7255939989118
1743285216266,17:53:36.266,-1,778.021978021978,2.96190476190476,32.7255939989118
1743285216285,17:53:36.285,-1,1260.80586080586,2.96043956043956,32.7255939989118
1743285216305,17:53:36.305,-1,1595.6043956044,2.95897435897436,32.7255939989118
1743285216324,17:53:36.324,-1,1788.27838827839,2.95750915750916,32.7255939989118
1743285216344,17:53:36.344,-1,1879.12087912088,2.95604395604396,32.7255939989118
1743285216363,17:53:36.363,-1,1905.49450549451,2.95457875457875,32.7255939989118
1743285216383,17:53:36.383,-1,1887.17948717949,2.95311355311355,32.7255939989118
1743285216402,17:53:36.402,-1,1839.56043956044,2.95018315018315,32.7255939989118
1743285216422,17:53:36.422,-1,1763.36996336996,2.94871794871795,32.7255939989118
1743285216441,17:53:36.441,-1,1679.85347985348,2.94725274725275,32.7255939989118
1743285216461,17:53:36.461,-1,1598.5347985348,2.94578754578755,32.7255939989118
1743285216480,17:53:36.480,-1,1530.40293040293,2.94432234432234,32.7255939989118
1743285216500,17:53:36.500,-1,1491.57509157509,2.94285714285714,32.7255939989118
1743285216519,17:53:36.519,-1,1473.26007326007,2.94139194139194,32.7255939989118
1743285216539,17:53:36.539,-1,1461.53846153846,2.93992673992674,32.7255939989118
1743285216558,17:53:36.558,-1,1439.56043956044,2.93699633699634,32.7255939989118
1743285216578,17:53:36.578,-1,1422.71062271062,2.93553113553113,32.7255939989118
1743285216597,17:53:36.597,-1,1400.7326007326,2.93553113553113,32.7255939989118
1743285216617,17:53:36.617,-1,1373.62637362637,2.93260073260073,32.7255939989118
1743285216636,17:53:36.636,-1,1336.26373626374,2.93113553113553,32.7255939989118
1743285216656,17:53:36.656,-1,1299.6336996337,2.92967032967033,32.7255939989118
1743285216675,17:53:36.675,-1,1267.39926739927,2.92820512820513,32.7255939989118
1743285216695,17:53:36.695,-1,1231.50183150183,2.92527472527473,32.7255939989118
1743285216714,17:53:36.714,-1,1196.336996337,2.92380952380952,32.7255939989118
1743285216734,17:53:36.734,-1,1171.42857142857,2.92234432234432,32.7255939989118
1743285216753,17:53:36.753,-1,1161.17216117216,2.92087912087912,32.7255939989118
1743285216773,17:53:36.773,-1,1167.76556776557,2.91941391941392,32.7255939989118
1743285216792,17:53:36.792,-1,1154.57875457875,2.91648351648352,32.7255939989118
1743285216812,17:53:36.812,-1,1147.98534798535,2.91501831501831,32.7255939989118
1743285216831,17:53:36.831,-1,1144.32234432234,2.91355311355311,32.7255939989118
1743285216851,17:53:36.851,-1,1136.99633699634,2.91062271062271,32.7255939989118
1743285216870,17:53:36.870,-1,1134.06593406593,2.90915750915751,32.7255939989118
1743285216890,17:53:36.890,-1,1128.93772893773,2.90769230769231,32.7255939989118
1743285216909,17:53:36.909,-1,1127.47252747253,2.90622710622711,32.7255939989118
1743285216929,17:53:36.929,-1,1135.53113553114,2.9032967032967,32.7255939989118
1743285216948,17:53:36.948,-1,1208.79120879121,2.9032967032967,32.7255939989118
1743285216968,17:53:36.968,-1,1342.12454212454,2.9018315018315,32.7255939989118
1743285216987,17:53:36.987,-1,1486.44688644689,2.9018315018315,32.7255939989118
1743285217007,17:53:37.007,-1,1624.90842490842,2.9003663003663,32.7255939989118
1743285217026,17:53:37.026,-1,1734.79853479853,2.8974358974359,32.7255939989118
1743285217046,17:53:37.046,-1,1808.05860805861,2.8959706959707,32.7356022949098
1743285217065,17:53:37.065,-1,1855.67765567766,2.89450549450549,32.7356022949098
1743285217085,17:53:37.085,-1,1878.38827838828,2.89304029304029,32.7356022949098
1743285217104,17:53:37.104,-1,1874.72527472527,2.89157509157509,32.7356022949098
1743285217124,17:53:37.124,-1,1846.15384615385,2.89010989010989,32.7356022949098
1743285217143,17:53:37.143,-1,1799.2673992674,2.88717948717949,32.7356022949098
1743285217163,17:53:37.163,-1,1750.91575091575,2.88571428571429,32.7356022949098
1743285217182,17:53:37.182,-1,1693.77289377289,2.88424908424908,32.7356022949098
1743285217202,17:53:37.202,-1,1625.64102564103,2.88278388278388,32.7356022949098
1743285217221,17:53:37.221,-1,1558.97435897436,2.88131868131868,32.7356022949098
1743285217241,17:53:37.241,-1,1495.2380952381,2.87985347985348,32.7356022949098
1743285217260,17:53:37.260,-1,1447.61904761905,2.87838827838828,32.7356022949098
1743285217280,17:53:37.280,-1,1416.84981684982,2.87692307692308,32.7356022949098
1743285217299,17:53:37.299,-1,1399.2673992674,2.87545787545788,32.7356022949098
1743285217319,17:53:37.319,-1,1382.41758241758,2.87399267399267,32.7356022949098
1743285217338,17:53:37.338,-1,1360.43956043956,2.87252747252747,32.7356022949098
1743285217358,17:53:37.358,-1,1336.26373626374,2.87106227106227,32.7356022949098
1743285217377,17:53:37.377,-1,1309.15750915751,2.86959706959707,32.7356022949098
1743285217397,17:53:37.397,-1,1279.12087912088,2.86813186813187,32.7356022949098
1743285217416,17:53:37.416,-1,1261.53846153846,2.86666666666667,32.7356022949098
1743285217436,17:53:37.436,-1,1249.81684981685,2.86520146520146,32.7356022949098
1743285217455,17:53:37.455,-1,1227.10622710623,2.86373626373626,32.7356022949098
1743285217475,17:53:37.475,-1,1196.336996337,2.86373626373626,32.7356022949098
1743285217494,17:53:37.494,-1,1175.09157509158,2.86080586080586,32.7356022949098
1743285217514,17:53:37.514,-1,1165.56776556777,2.85934065934066,32.7356022949098
1743285217533,17:53:37.533,-1,1170.69597069597,2.85934065934066,32.7356022949098
1743285217553,17:53:37.553,-1,1183.88278388278,2.85787545787546,32.7356022949098
1743285217572,17:53:37.572,-1,1183.15018315018,2.85641025641026,32.7356022949098
1743285217592,17:53:37.592,-1,1163.36996336996,2.85641025641026,32.7356022949098
1743285217611,17:53:37.611,-1,1141.39194139194,2.85347985347985,32.7356022949098
1743285217631,17:53:37.631,-1,1136.99633699634,2.85347985347985,32.7356022949098
1743285217650,17:53:37.650,-1,1133.33333333333,2.85201465201465,32.7356022949098
1743285217670,17:53:37.670,-1,1123.07692307692,2.85054945054945,32.7356022949098
1743285217689,17:53:37.689,-1,1125.27472527473,2.85054945054945,32.7356022949098
1743285217709,17:53:37.709,-1,1130.40293040293,2.84761904761905,32.7356022949098
1743285217728,17:53:37.728,-1,1126.00732600733,2.84761904761905,32.7356022949098
1743285217748,17:53:37.748,-1,1134.06593406593,2.84761904761905,32.7356022949098
1743285217767,17:53:37.767,-1,1182.41758241758,2.84615384615385,32.7356022949098
1743285217787,17:53:37.787,-1,1277.65567765568,2.84468864468864,32.7356022949098
1743285217806,17:53:37.806,-1,1399.2673992674,2.84322344322344,32.7356022949098
1743285217826,17:53:37.826,-1,1521.61172161172,2.84175824175824,32.7356022949098
1743285217845,17:53:37.845,-1,1616.84981684982,2.84175824175824,32.7356022949098
1743285217865,17:53:37.865,-1,1678.38827838828,2.84029304029304,32.7356022949098
1743285217884,17:53:37.884,-1,1724.54212454212,2.83882783882784,32.7356022949098
1743285217904,17:53:37.904,-1,1747.25274725275,2.83882783882784,32.7356022949098
1743285217923,17:53:37.923,-1,1746.52014652015,2.83736263736264,32.7356022949098
1743285217943,17:53:37.943,-1,1725.27472527473,2.83589743589744,32.7356022949098
1743285217962,17:53:37.962,-1,1693.04029304029,2.83443223443223,32.7356022949098
1743285217982,17:53:37.982,-1,1641.02564102564,2.83296703296703,32.7356022949098
1743285218001,17:53:38.001,-1,1588.27838827839,2.83150183150183,32.7356022949098
1743285218021,17:53:38.021,-1,1536.99633699634,2.83150183150183,32.7356022949098
1743285218040,17:53:38.040,-1,1482.78388278388,2.83003663003663,32.7456105676247
1743285218060,17:53:38.060,-1,1426.37362637363,2.82857142857143,32.7456105676247
1743285218079,17:53:38.079,-1,1382.41758241758,2.82857142857143,32.7456105676247
1743285218099,17:53:38.099,-1,1348.71794871795,2.82710622710623,32.7456105676247
1743285218118,17:53:38.118,-1,1323.07692307692,2.82564102564103,32.7456105676247
1743285218138,17:53:38.138,-1,1301.0989010989,2.82417582417582,32.7456105676247
1743285218157,17:53:38.157,-1,1287.17948717949,2.82417582417582,32.7456105676247
1743285218177,17:53:38.177,-1,1279.12087912088,2.82271062271062,32.7456105676247
1743285218196,17:53:38.196,-1,1264.46886446886,2.82124542124542,32.7456105676247
1743285218216,17:53:38.216,-1,1255.67765567766,2.81978021978022,32.7456105676247
1743285218235,17:53:38.235,-1,1243.95604395604,2.81978021978022,32.7456105676247
1743285218255,17:53:38.255,-1,1230.76923076923,2.81831501831502,32.7456105676247
1743285218274,17:53:38.274,-1,1205.12820512821,2.81684981684982,32.7456105676247
1743285218294,17:53:38.294,-1,1180.21978021978,2.81684981684982,32.7456105676247
1743285218313,17:53:38.313,-1,1162.63736263736,2.81538461538462,32.7456105676247
1743285218333,17:53:38.333,-1,1163.36996336996,2.81538461538462,32.7456105676247
1743285218352,17:53:38.352,-1,1164.10256410256,2.81391941391941,32.7456105676247
1743285218372,17:53:38.372,-1,1150.91575091575,2.81245421245421,32.7456105676247
1743285218391,17:53:38.391,-1,1134.79853479853,2.81098901098901,32.7456105676247
1743285218411,17:53:38.411,-1,1110.62271062271,2.81098901098901,32.7456105676247
1743285218430,17:53:38.430,-1,1094.50549450549,2.80952380952381,32.7456105676247
1743285218450,17:53:38.450,-1,1101.8315018315,2.80805860805861,32.7456105676247
1743285218469,17:53:38.469,-1,1106.95970695971,2.80805860805861,32.7456105676247
1743285218489,17:53:38.489,-1,1109.89010989011,2.80659340659341,32.7456105676247
1743285218508,17:53:38.508,-1,1106.22710622711,2.80512820512821,32.7456105676247
1743285218528,17:53:38.528,-1,1096.7032967033,2.803663003663,32.7456105676247
1743285218547,17:53:38.547,-1,1092.30769230769,2.803663003663,32.7456105676247
1743285218567,17:53:38.567,-1,1093.77289377289,2.8021978021978,32.7456105676247
1743285218586,17:53:38.586,-1,1136.99633699634,2.8007326007326,32.7456105676247
1743285218606,17:53:38.606,-1,1214.65201465201,2.8007326007326,32.7456105676247
1743285218625,17:53:38.625,-1,1310.62271062271,2.7992673992674,32.7456105676247
1743285218645,17:53:38.645,-1,1405.12820512821,2.7978021978022,32.7456105676247
1743285218664,17:53:38.664,-1,1501.0989010989,2.796336996337,32.7456105676247
1743285218684,17:53:38.684,-1,1578.02197802198,2.796336996337,32.7456105676247
1743285218703,17:53:38.703,-1,1627.10622710623,2.79487179487179,32.7456105676247
1743285218723,17:53:38.723,-1,1653.47985347985,2.79340659340659,32.7456105676247
1743285218742,17:53:38.742,-1,1652.01465201465,2.79340659340659,32.7456105676247
1743285218762,17:53:38.762,-1,1637.36263736264,2.79194139194139,32.7456105676247
1743285218781,17:53:38.781,-1,1608.05860805861,2.79047619047619,32.7456105676247
1743285218801,17:53:38.801,-1,1578.02197802198,2.79047619047619,32.7456105676247
1743285218820,17:53:38.820,-1,1543.58974358974,2.78901098901099,32.7456105676247
1743285218840,17:53:38.840,-1,1509.15750915751,2.78901098901099,32.7456105676247
1743285218859,17:53:38.859,-1,1468.13186813187,2.78754578754579,32.7456105676247
1743285218879,17:53:38.879,-1,1420.51282051282,2.78608058608059,32.7456105676247
1743285218898,17:53:38.898,-1,1383.88278388278,2.78608058608059,32.7456105676247
1743285218918,17:53:38.918,-1,1374.35897435897,2.78461538461538,32.7456105676247
1743285218937,17:53:38.937,-1,1373.62637362637,2.78315018315018,32.7456105676247
1743285218957,17:53:38.957,-1,1361.90476190476,2.78315018315018,32.7456105676247
1743285218976,17:53:38.976,-1,1345.05494505494,2.78168498168498,32.7456105676247
1743285218996,17:53:38.996,-1,1328.93772893773,2.78168498168498,32.7456105676247
1743285219015,17:53:39.015,-1,1324.54212454212,2.78021978021978,32.7456105676247
1743285219035,17:53:39.035,-1,1312.82051282051,2.78021978021978,32.7456105676247
1743285219054,17:53:39.054,-1,1286.44688644689,2.77875457875458,32.7456105676247
1743285219074,17:53:39.074,-1,1265.20146520147,2.77875457875458,32.7456105676247
1743285219093,17:53:39.093,-1,1243.22344322344,2.77728937728938,32.7456105676247
1743285219113,17:53:39.113,-1,1227.10622710623,2.77728937728938,32.7456105676247
1743285219132,17:53:39.132,-1,1204.3956043956,2.77728937728938,32.7456105676247
1743285219152,17:53:39.152,-1,1189.74358974359,2.77728937728938,32.7456105676247
1743285219171,17:53:39.171,-1,1191.94139194139,2.77582417582418,32.7456105676247
1743285219191,17:53:39.191,-1,1195.6043956044,2.77582417582418,32.7456105676247
1743285219210,17:53:39.210,-1,1204.3956043956,2.77435897435897,32.7456105676247
1743285219230,17:53:39.230,-1,1209.52380952381,2.77435897435897,32.7456105676247
1743285219249,17:53:39.249,-1,1194.87179487179,2.77289377289377,32.7456105676247
1743285219269,17:53:39.269,-1,1171.42857142857,2.77289377289377,32.7456105676247
1743285219288,17:53:39.288,-1,1152.38095238095,2.77142857142857,32.7456105676247
1743285219308,17:53:39.308,-1,1148.71794871795,2.77142857142857,32.7456105676247
1743285219327,17:53:39.327,-1,1169.23076923077,2.76996336996337,32.7456105676247
1743285219347,17:53:39.347,-1,1224.17582417582,2.76849816849817,32.7456105676247
1743285219366,17:53:39.366,-1,1300.3663003663,2.76849816849817,32.7456105676247
1743285219386,17:53:39.386,-1,1396.336996337,2.76849816849817,32.7456105676247
1743285219405,17:53:39.405,-1,1487.91208791209,2.76849816849817,32.7456105676247
1743285219425,17:53:39.425,-1,1567.76556776557,2.76703296703297,32.7456105676247
1743285219444,17:53:39.444,-1,1621.24542124542,2.76556776556777,32.7456105676247
1743285219464,17:53:39.464,-1,1638.09523809524,2.76556776556777,32.7456105676247
1743285219483,17:53:39.483,-1,1639.56043956044,2.76410256410256,32.7456105676247
1743285219503,17:53:39.503,-1,1635.89743589744,2.76410256410256,32.7456105676247
1743285219522,17:53:39.522,-1,1622.71062271062,2.76410256410256,32.7456105676247
1743285219542,17:53:39.542,-1,1600,2.76410256410256,32.7456105676247
1743285219561,17:53:39.561,-1,1558.24175824176,2.76263736263736,32.7456105676247
1743285219581,17:53:39.581,-1,1532.60073260073,2.76263736263736,32.7456105676247
1743285219600,17:53:39.600,-1,1497.4358974359,2.76117216117216,32.7456105676247
1743285219620,17:53:39.620,-1,1466.66666666667,2.76117216117216,32.7456105676247
1743285219639,17:53:39.639,-1,1437.36263736264,2.75970695970696,32.7456105676247
1743285219659,17:53:39.659,-1,1420.51282051282,2.75970695970696,32.7456105676247
1743285219678,17:53:39.678,-1,1415.38461538462,2.75824175824176,32.7456105676247
1743285219698,17:53:39.698,-1,1413.18681318681,2.75824175824176,32.7456105676247
1743285219717,17:53:39.717,-1,1403.663003663,2.75824175824176,32.7456105676247
1743285219737,17:53:39.737,-1,1381.68498168498,2.75824175824176,32.7456105676247
1743285219756,17:53:39.756,-1,1368.49816849817,2.75824175824176,32.7456105676247
1743285219776,17:53:39.776,-1,1342.85714285714,2.75677655677656,32.7456105676247
1743285219795,17:53:39.795,-1,1312.82051282051,2.75531135531135,32.7456105676247
1743285219815,17:53:39.815,-1,1290.10989010989,2.75531135531135,32.7456105676247
1743285219834,17:53:39.834,-1,1263.00366300366,2.75531135531135,32.7456105676247
1743285219854,17:53:39.854,-1,1255.67765567766,2.75531135531135,32.7456105676247
1743285219873,17:53:39.873,-1,1251.28205128205,2.75384615384615,32.7456105676247
1743285219893,17:53:39.893,-1,1236.63003663004,2.75238095238095,32.7456105676247
1743285219912,17:53:39.912,-1,1243.22344322344,2.75238095238095,32.7456105676247
1743285219932,17:53:39.932,-1,1251.28205128205,2.75091575091575,32.7456105676247
1743285219951,17:53:39.951,-1,1243.95604395604,2.75238095238095,32.7456105676247
1743285219971,17:53:39.971,-1,1230.76923076923,2.75091575091575,32.7456105676247
1743285219990,17:53:39.990,-1,1219.04761904762,2.75091575091575,32.7456105676247
1743285220010,17:53:40.010,-1,1205.86080586081,2.74945054945055,32.7456105676247
1743285220029,17:53:40.029,-1,1191.20879120879,2.74945054945055,32.7456105676247
1743285220049,17:53:40.049,-1,1191.94139194139,2.74945054945055,32.7456105676247
1743285220068,17:53:40.068,-1,1194.13919413919,2.74945054945055,32.7456105676247
1743285220088,17:53:40.088,-1,1217.58241758242,2.74798534798535,32.7456105676247
1743285220107,17:53:40.107,-1,1285.71428571429,2.74798534798535,32.7456105676247
1743285220127,17:53:40.127,-1,1377.28937728938,2.74798534798535,32.7456105676247
1743285220146,17:53:40.146,-1,1486.44688644689,2.74652014652015,32.7456105676247
1743285220166,17:53:40.166,-1,1588.27838827839,2.74652014652015,32.7456105676247
1743285220185,17:53:40.185,-1,1668.86446886447,2.74505494505494,32.7456105676247
1743285220205,17:53:40.205,-1,1728.93772893773,2.74505494505494,32.7456105676247
1743285220224,17:53:40.224,-1,1765.56776556777,2.74505494505494,32.7456105676247
1743285220244,17:53:40.244,-1,1776.55677655678,2.74358974358974,32.7456105676247
1743285220263,17:53:40.263,-1,1793.40659340659,2.74358974358974,32.7456105676247
1743285220283,17:53:40.283,-1,1810.25641025641,2.74358974358974,32.7456105676247
1743285220302,17:53:40.302,-1,1803.663003663,2.74212454212454,32.7456105676247
1743285220322,17:53:40.322,-1,1775.09157509157,2.74212454212454,32.7456105676247
1743285220341,17:53:40.341,-1,1720.87912087912,2.74212454212454,32.7456105676247
1743285220361,17:53:40.361,-1,1661.53846153846,2.74212454212454,32.7456105676247
1743285220380,17:53:40.380,-1,1602.9304029304,2.74065934065934,32.7456105676247
1743285220400,17:53:40.400,-1,1537.72893772894,2.74065934065934,32.7456105676247
1743285220419,17:53:40.419,-1,1493.04029304029,2.73919413919414,32.7456105676247
1743285220439,17:53:40.439,-1,1476.92307692308,2.73919413919414,32.7456105676247
1743285220458,17:53:40.458,-1,1472.52747252747,2.73772893772894,32.7456105676247
1743285220478,17:53:40.478,-1,1474.72527472527,2.73772893772894,32.7456105676247
1743285220497,17:53:40.497,-1,1461.53846153846,2.73626373626374,32.7456105676247
1743285220517,17:53:40.517,-1,1439.56043956044,2.73626373626374,32.7456105676247
1743285220536,17:53:40.536,-1,1419.04761904762,2.73626373626374,32.7456105676247
1743285220556,17:53:40.556,-1,1394.13919413919,2.73479853479853,32.7456105676247
1743285220575,17:53:40.575,-1,1367.03296703297,2.73479853479853,32.7456105676247
1743285220595,17:53:40.595,-1,1339.19413919414,2.73479853479853,32.7456105676247
1743285220614,17:53:40.614,-1,1315.01831501831,2.73333333333333,32.7456105676247
1743285220634,17:53:40.634,-1,1294.50549450549,2.73333333333333,32.7456105676247
1743285220653,17:53:40.653,-1,1282.78388278388,2.73333333333333,32.7456105676247
1743285220673,17:53:40.673,-1,1273.99267399267,2.73186813186813,32.7456105676247
1743285220692,17:53:40.692,-1,1266.66666666667,2.73040293040293,32.7456105676247
1743285220712,17:53:40.712,-1,1244.68864468864,2.73040293040293,32.7456105676247
1743285220731,17:53:40.731,-1,1223.44322344322,2.73040293040293,32.7456105676247
1743285220751,17:53:40.751,-1,1214.65201465201,2.73040293040293,32.7456105676247
1743285220770,17:53:40.770,-1,1194.87179487179,2.73040293040293,32.7456105676247
1743285220790,17:53:40.790,-1,1170.69597069597,2.72893772893773,32.7456105676247
1743285220809,17:53:40.809,-1,1150.91575091575,2.72893772893773,32.7456105676247
1743285220829,17:53:40.829,-1,1141.39194139194,2.72893772893773,32.7456105676247
1743285220848,17:53:40.848,-1,1150.91575091575,2.72893772893773,32.7456105676247
1743285220868,17:53:40.868,-1,1198.5347985348,2.72747252747253,32.7456105676247
1743285220887,17:53:40.887,-1,1288.64468864469,2.72747252747253,32.7456105676247
1743285220907,17:53:40.907,-1,1400,2.72747252747253,32.7456105676247
1743285220926,17:53:40.926,-1,1518.68131868132,2.72600732600733,32.7456105676247
1743285220946,17:53:40.946,-1,1646.88644688645,2.72600732600733,32.7456105676247
1743285220965,17:53:40.965,-1,1756.04395604396,2.72454212454212,32.7456105676247
1743285220985,17:53:40.985,-1,1830.76923076923,2.72454212454212,32.7456105676247
1743285221004,17:53:41.004,-1,1885.71428571429,2.72307692307692,32.7456105676247
1743285221024,17:53:41.024,-1,1931.13553113553,2.72307692307692,32.7556188170565
1743285221043,17:53:41.043,-1,1944.32234432234,2.72161172161172,32.7556188170565
1743285221063,17:53:41.063,-1,1949.45054945055,2.72161172161172,32.7556188170565
1743285221082,17:53:41.082,-1,1937.72893772894,2.72307692307692,32.7556188170565
1743285221102,17:53:41.102,-1,1901.8315018315,2.72307692307692,32.7556188170565
1743285221121,17:53:41.121,-1,1849.81684981685,2.72307692307692,32.7556188170565
1743285221141,17:53:41.141,-1,1783.88278388278,2.72161172161172,32.7556188170565
1743285221160,17:53:41.160,-1,1706.95970695971,2.72014652014652,32.7556188170565
1743285221180,17:53:41.180,-1,1627.10622710623,2.72014652014652,32.7556188170565
1743285221199,17:53:41.199,-1,1571.42857142857,2.72014652014652,32.7556188170565
1743285221219,17:53:41.219,-1,1531.86813186813,2.71868131868132,32.7556188170565
1743285221238,17:53:41.238,-1,1505.49450549451,2.71868131868132,32.7556188170565
1743285221258,17:53:41.258,-1,1484.24908424908,2.71868131868132,32.7556188170565
1743285221277,17:53:41.277,-1,1458.60805860806,2.71721611721612,32.7556188170565
1743285221297,17:53:41.297,-1,1440.29304029304,2.71721611721612,32.7556188170565
1743285221316,17:53:41.316,-1,1430.03663003663,2.71721611721612,32.7556188170565
1743285221336,17:53:41.336,-1,1410.98901098901,2.71721611721612,32.7556188170565
1743285221355,17:53:41.355,-1,1384.61538461538,2.71575091575092,32.7556188170565
1743285221375,17:53:41.375,-1,1349.45054945055,2.71575091575092,32.7556188170565
1743285221394,17:53:41.394,-1,1311.35531135531,2.71428571428571,32.7556188170565
1743285221414,17:53:41.414,-1,1277.65567765568,2.71428571428571,32.7556188170565
1743285221433,17:53:41.433,-1,1252.01465201465,2.71282051282051,32.7556188170565
1743285221453,17:53:41.453,-1,1214.65201465201,2.71282051282051,32.7556188170565
1743285221472,17:53:41.472,-1,1180.95238095238,2.71282051282051,32.7556188170565
1743285221492,17:53:41.492,-1,1163.36996336996,2.71282051282051,32.7556188170565
1743285221511,17:53:41.511,-1,1153.84615384615,2.71135531135531,32.7556188170565
1743285221531,17:53:41.531,-1,1149.45054945055,2.71135531135531,32.7556188170565
1743285221550,17:53:41.550,-1,1146.52014652015,2.70989010989011,32.7556188170565
1743285221570,17:53:41.570,-1,1142.12454212454,2.70989010989011,32.7556188170565
1743285221589,17:53:41.589,-1,1137.72893772894,2.70989010989011,32.7556188170565
1743285221609,17:53:41.609,-1,1126.73992673993,2.70842490842491,32.7556188170565
1743285221628,17:53:41.628,-1,1139.19413919414,2.70842490842491,32.7556188170565
1743285221648,17:53:41.648,-1,1197.8021978022,2.70842490842491,32.7556188170565
1743285221667,17:53:41.667,-1,1301.8315018315,2.70842490842491,32.7556188170565
1743285221687,17:53:41.687,-1,1448.35164835165,2.70695970695971,32.7556188170565
1743285221706,17:53:41.706,-1,1610.25641025641,2.70695970695971,32.7556188170565
1743285221726,17:53:41.726,-1,1764.83516483516,2.70549450549451,32.7556188170565
1743285221745,17:53:41.745,-1,1888.64468864469,2.70549450549451,32.7556188170565
1743285221765,17:53:41.765,-1,1974.35897435897,2.70549450549451,32.7556188170565
1743285221784,17:53:41.784,-1,2026.37362637363,2.70549450549451,32.7556188170565
1743285221804,17:53:41.804,-1,2047.61904761905,2.70549450549451,32.7556188170565
1743285221823,17:53:41.823,-1,2030.76923076923,2.70549450549451,32.7556188170565
1743285221843,17:53:41.843,-1,1993.40659340659,2.7040293040293,32.7556188170565
1743285221862,17:53:41.862,-1,1950.18315018315,2.7025641025641,32.7556188170565
1743285221882,17:53:41.882,-1,1891.57509157509,2.7025641025641,32.7556188170565
1743285221901,17:53:41.901,-1,1811.72161172161,2.7025641025641,32.7556188170565
1743285221921,17:53:41.921,-1,1731.86813186813,2.7025641025641,32.7556188170565
1743285221940,17:53:41.940,-1,1650.54945054945,2.7010989010989,32.7556188170565
1743285221960,17:53:41.960,-1,1581.68498168498,2.7010989010989,32.7556188170565
1743285221979,17:53:41.979,-1,1525.27472527473,2.7010989010989,32.7556188170565
1743285221999,17:53:41.999,-1,1484.98168498168,2.7010989010989,32.7556188170565
1743285222018,17:53:42.018,-1,1455.67765567766,2.7010989010989,32.7556188170565
1743285222038,17:53:42.038,-1,1435.16483516484,2.7010989010989,32.7556188170565
1743285222057,17:53:42.057,-1,1417.58241758242,2.6996336996337,32.7556188170565
1743285222077,17:53:42.077,-1,1406.59340659341,2.6996336996337,32.7556188170565
1743285222096,17:53:42.096,-1,1383.88278388278,2.6996336996337,32.7556188170565
1743285222116,17:53:42.116,-1,1346.52014652015,2.6996336996337,32.7556188170565
1743285222135,17:53:42.135,-1,1310.62271062271,2.6996336996337,32.7556188170565
1743285222155,17:53:42.155,-1,1279.85347985348,2.6981684981685,32.7556188170565
1743285222174,17:53:42.174,-1,1252.01465201465,2.6981684981685,32.7556188170565
1743285222194,17:53:42.194,-1,1241.02564102564,2.6981684981685,32.7556188170565
1743285222213,17:53:42.213,-1,1234.43223443223,2.6981684981685,32.7556188170565
1743285222233,17:53:42.233,-1,1227.10622710623,2.6981684981685,32.7556188170565
1743285222252,17:53:42.252,-1,1217.58241758242,2.6967032967033,32.7556188170565
1743285222272,17:53:42.272,-1,1209.52380952381,2.6967032967033,32.7556188170565
1743285222291,17:53:42.291,-1,1202.1978021978,2.6967032967033,32.7556188170565
1743285222311,17:53:42.311,-1,1191.20879120879,2.69523809523809,32.7556188170565
1743285222330,17:53:42.330,-1,1176.55677655678,2.69523809523809,32.7556188170565
1743285222350,17:53:42.350,-1,1158.24175824176,2.69523809523809,32.7556188170565
1743285222369,17:53:42.369,-1,1150.18315018315,2.69523809523809,32.7556188170565
1743285222389,17:53:42.389,-1,1140.65934065934,2.69523809523809,32.7556188170565
1743285222408,17:53:42.408,-1,1164.83516483516,2.69377289377289,32.7556188170565
1743285222428,17:53:42.428,-1,1255.67765567766,2.69377289377289,32.7556188170565
1743285222447,17:53:42.447,-1,1402.1978021978,2.69377289377289,32.7556188170565
1743285222467,17:53:42.467,-1,1587.54578754579,2.69377289377289,32.7556188170565
1743285222486,17:53:42.486,-1,1755.31135531136,2.69377289377289,32.7556188170565
1743285222506,17:53:42.506,-1,1886.44688644689,2.69377289377289,32.7556188170565
1743285222525,17:53:42.525,-1,1963.36996336996,2.69377289377289,32.7556188170565
1743285222545,17:53:42.545,-1,1991.20879120879,2.69377289377289,32.7556188170565
1743285222564,17:53:42.564,-1,1983.15018315018,2.69377289377289,32.7556188170565
1743285222584,17:53:42.584,-1,1972.16117216117,2.69377289377289,32.7556188170565
1743285222603,17:53:42.603,-1,1950.91575091575,2.69230769230769,32.7556188170565
1743285222623,17:53:42.623,-1,1903.2967032967,2.69084249084249,32.7556188170565
1743285222642,17:53:42.642,-1,1831.50183150183,2.69084249084249,32.7556188170565
1743285222662,17:53:42.662,-1,1731.86813186813,2.68937728937729,32.7556188170565
1743285222681,17:53:42.681,-1,1633.69963369963,2.68937728937729,32.7556188170565
1743285222701,17:53:42.701,-1,1545.05494505494,2.69084249084249,32.7556188170565
1743285222720,17:53:42.720,-1,1484.98168498168,2.68937728937729,32.7556188170565
1743285222740,17:53:42.740,-1,1450.54945054945,2.68937728937729,32.7556188170565
1743285222759,17:53:42.759,-1,1428.57142857143,2.68791208791209,32.7556188170565
1743285222779,17:53:42.779,-1,1409.52380952381,2.68791208791209,32.7556188170565
1743285222798,17:53:42.798,-1,1399.2673992674,2.68791208791209,32.7556188170565
1743285222818,17:53:42.818,-1,1389.01098901099,2.68791208791209,32.7556188170565
1743285222837,17:53:42.837,-1,1375.82417582418,2.68644688644689,32.7556188170565
1743285222857,17:53:42.857,-1,1356.77655677656,2.68644688644689,32.7556188170565
1743285222876,17:53:42.876,-1,1325.27472527473,2.68644688644689,32.7556188170565
1743285222896,17:53:42.896,-1,1287.91208791209,2.68644688644689,32.7556188170565
1743285222915,17:53:42.915,-1,1255.67765567766,2.68644688644689,32.7556188170565
1743285222935,17:53:42.935,-1,1239.56043956044,2.68644688644689,32.7556188170565
1743285222954,17:53:42.954,-1,1220.51282051282,2.68498168498168,32.7556188170565
1743285222974,17:53:42.974,-1,1203.663003663,2.68791208791209,32.7556188170565
1743285222993,17:53:42.993,-1,1183.88278388278,2.68937728937729,32.7556188170565
1743285223013,17:53:43.013,-1,1169.23076923077,2.68791208791209,32.7556188170565
1743285223032,17:53:43.032,-1,1153.84615384615,2.68644688644689,32.7556188170565
1743285223052,17:53:43.052,-1,1126.00732600733,2.68644688644689,32.7556188170565
1743285223071,17:53:43.071,-1,1104.7619047619,2.68644688644689,32.7556188170565
1743285223091,17:53:43.091,-1,1104.0293040293,2.68644688644689,32.7556188170565
1743285223110,17:53:43.110,-1,1124.54212454212,2.68498168498168,32.7556188170565
1743285223130,17:53:43.130,-1,1203.663003663,2.68498168498168,32.7556188170565
1743285223149,17:53:43.149,-1,1331.86813186813,2.68498168498168,32.7556188170565
1743285223169,17:53:43.169,-1,1485.71428571429,2.68498168498168,32.7556188170565
1743285223188,17:53:43.188,-1,1621.24542124542,2.68498168498168,32.7556188170565
1743285223208,17:53:43.208,-1,1727.47252747253,2.68498168498168,32.7556188170565
1743285223227,17:53:43.227,-1,1794.13919413919,2.68351648351648,32.7556188170565
1743285223247,17:53:43.247,-1,1802.1978021978,2.68351648351648,32.7556188170565
1743285223266,17:53:43.266,-1,1799.2673992674,2.68351648351648,32.7556188170565
1743285223286,17:53:43.286,-1,1786.81318681319,2.68351648351648,32.7556188170565
1743285223305,17:53:43.305,-1,1738.46153846154,2.68351648351648,32.7556188170565
1743285223325,17:53:43.325,-1,1670.32967032967,2.68351648351648,32.7556188170565
1743285223344,17:53:43.344,-1,1610.25641025641,2.68351648351648,32.7556188170565
1743285223364,17:53:43.364,-1,1547.25274725275,2.68205128205128,32.7556188170565
1743285223383,17:53:43.383,-1,1467.39926739927,2.68205128205128,32.7556188170565
1743285223403,17:53:43.403,-1,1394.13919413919,2.68205128205128,32.7556188170565
1743285223422,17:53:43.422,-1,1336.99633699634,2.68058608058608,32.7556188170565
1743285223442,17:53:43.442,-1,1306.22710622711,2.68205128205128,32.7556188170565
1743285223461,17:53:43.461,-1,1285.71428571429,2.68058608058608,32.7556188170565
1743285223481,17:53:43.481,-1,1274.72527472527,2.68058608058608,32.7556188170565
1743285223500,17:53:43.500,-1,1278.38827838828,2.68058608058608,32.7556188170565
1743285223520,17:53:43.520,-1,1274.72527472527,2.68058608058608,32.7556188170565
1743285223539,17:53:43.539,-1,1268.13186813187,2.68058608058608,32.7556188170565
1743285223559,17:53:43.559,-1,1263.73626373626,2.68058608058608,32.7556188170565
1743285223578,17:53:43.578,-1,1245.42124542125,2.67912087912088,32.7556188170565
1743285223598,17:53:43.598,-1,1212.45421245421,2.68058608058608,32.7556188170565
1743285223617,17:53:43.617,-1,1190.47619047619,2.68058608058608,32.7556188170565
1743285223637,17:53:43.637,-1,1161.90476190476,2.68058608058608,32.7556188170565
1743285223656,17:53:43.656,-1,1134.06593406593,2.67912087912088,32.7556188170565
1743285223676,17:53:43.676,-1,1123.07692307692,2.67912087912088,32.7556188170565
1743285223695,17:53:43.695,-1,1111.35531135531,2.67912087912088,32.7556188170565
1743285223715,17:53:43.715,-1,1090.10989010989,2.67765567765568,32.7556188170565
1743285223734,17:53:43.734,-1,1062.27106227106,2.67912087912088,32.7556188170565
1743285223754,17:53:43.754,-1,1035.16483516484,2.67912087912088,32.7556188170565
1743285223773,17:53:43.773,-1,1024.90842490842,2.67912087912088,32.7556188170565
1743285223793,17:53:43.793,-1,1032.23443223443,2.67912087912088,32.7556188170565
1743285223812,17:53:43.812,-1,1054.94505494505,2.67912087912088,32.7556188170565
1743285223832,17:53:43.832,-1,1120.87912087912,2.67912087912088,32.7556188170565
1743285223851,17:53:43.851,-1,1240.29304029304,2.68058608058608,32.7556188170565
1743285223871,17:53:43.871,-1,1374.35897435897,2.67912087912088,32.7556188170565
1743285223890,17:53:43.890,-1,1498.1684981685,2.67912087912088,32.7556188170565
1743285223910,17:53:43.910,-1,1596.336996337,2.67765567765568,32.7556188170565
1743285223929,17:53:43.929,-1,1666.66666666667,2.67765567765568,32.7556188170565
1743285223949,17:53:43.949,-1,1702.5641025641,2.67765567765568,32.7556188170565
1743285223968,17:53:43.968,-1,1707.69230769231,2.67765567765568,32.7556188170565
1743285223988,17:53:43.988,-1,1698.9010989011,2.67619047619048,32.7556188170565
1743285224007,17:53:44.007,-1,1672.52747252747,2.67619047619048,32.7556188170565
1743285224027,17:53:44.027,-1,1637.36263736264,2.67472527472527,32.7556188170565
1743285224046,17:53:44.046,-1,1587.54578754579,2.67472527472527,32.7556188170565
1743285224066,17:53:44.066,-1,1517.21611721612,2.67472527472527,32.7556188170565
1743285224085,17:53:44.085,-1,1438.09523809524,2.67472527472527,32.7556188170565
1743285224105,17:53:44.105,-1,1365.56776556777,2.67472527472527,32.7556188170565
1743285224124,17:53:44.124,-1,1315.75091575092,2.67326007326007,32.7556188170565
1743285224144,17:53:44.144,-1,1287.91208791209,2.67326007326007,32.7556188170565
1743285224163,17:53:44.163,-1,1265.20146520147,2.67326007326007,32.7556188170565
1743285224183,17:53:44.183,-1,1240.29304029304,2.67179487179487,32.7556188170565
1743285224202,17:53:44.202,-1,1221.24542124542,2.67179487179487,32.7556188170565
1743285224222,17:53:44.222,-1,1210.25641025641,2.67179487179487,32.7556188170565
1743285224241,17:53:44.241,-1,1199.2673992674,2.67179487179487,32.7556188170565
1743285224261,17:53:44.261,-1,1177.28937728938,2.67032967032967,32.7556188170565
1743285224280,17:53:44.280,-1,1170.69597069597,2.67032967032967,32.7556188170565
1743285224300,17:53:44.300,-1,1157.50915750916,2.67032967032967,32.7556188170565
1743285224319,17:53:44.319,-1,1132.60073260073,2.66886446886447,32.7556188170565
1743285224339,17:53:44.339,-1,1117.94871794872,2.66886446886447,32.7556188170565
1743285224358,17:53:44.358,-1,1101.0989010989,2.66886446886447,32.7556188170565
1743285224378,17:53:44.378,-1,1088.64468864469,2.66739926739927,32.7556188170565
1743285224397,17:53:44.397,-1,1081.31868131868,2.66739926739927,32.7556188170565
1743285224417,17:53:44.417,-1,1076.19047619048,2.66739926739927,32.7556188170565
1743285224436,17:53:44.436,-1,1070.32967032967,2.66593406593407,32.7556188170565
1743285224456,17:53:44.456,-1,1068.86446886447,2.66593406593407,32.7556188170565
1743285224475,17:53:44.475,-1,1059.34065934066,2.66593406593407,32.7556188170565
1743285224495,17:53:44.495,-1,1040.29304029304,2.66446886446886,32.7556188170565
1743285224514,17:53:44.514,-1,1041.75824175824,2.66446886446886,32.7556188170565
1743285224534,17:53:44.534,-1,1072.52747252747,2.66446886446886,32.7556188170565
1743285224553,17:53:44.553,-1,1132.60073260073,2.66446886446886,32.7556188170565
1743285224573,17:53:44.573,-1,1225.64102564103,2.66300366300366,32.7556188170565
1743285224592,17:53:44.592,-1,1331.86813186813,2.66300366300366,32.7556188170565
1743285224612,17:53:44.612,-1,1421.97802197802,2.66300366300366,32.7556188170565
1743285224631,17:53:44.631,-1,1493.04029304029,2.66446886446886,32.7556188170565
1743285224651,17:53:44.651,-1,1541.39194139194,2.66300366300366,32.7556188170565
1743285224670,17:53:44.670,-1,1574.35897435897,2.66300366300366,32.7556188170565
1743285224690,17:53:44.690,-1,1576.55677655678,2.66300366300366,32.7556188170565
1743285224709,17:53:44.709,-1,1564.83516483516,2.66153846153846,32.7556188170565
1743285224729,17:53:44.729,-1,1547.25274725275,2.66007326007326,32.7556188170565
1743285224748,17:53:44.748,-1,1517.21611721612,2.66007326007326,32.7556188170565
1743285224768,17:53:44.768,-1,1492.30769230769,2.66007326007326,32.7556188170565
1743285224787,17:53:44.787,-1,1454.94505494505,2.66007326007326,32.7556188170565
1743285224807,17:53:44.807,-1,1402.1978021978,2.65860805860806,32.7556188170565
1743285224826,17:53:44.826,-1,1344.32234432234,2.65860805860806,32.7556188170565
1743285224846,17:53:44.846,-1,1294.50549450549,2.65860805860806,32.7556188170565
1743285224865,17:53:44.865,-1,1257.87545787546,2.65714285714286,32.7556188170565
1743285224885,17:53:44.885,-1,1230.03663003663,2.65714285714286,32.7556188170565
1743285224904,17:53:44.904,-1,1208.05860805861,2.65860805860806,32.7556188170565
1743285224924,17:53:44.924,-1,1185.34798534799,2.65714285714286,32.7556188170565
1743285224943,17:53:44.943,-1,1168.49816849817,2.65714285714286,32.7556188170565
1743285224963,17:53:44.963,-1,1152.38095238095,2.65567765567766,32.7556188170565
1743285224982,17:53:44.982,-1,1137.72893772894,2.65567765567766,32.7556188170565
1743285225002,17:53:45.002,-1,1128.93772893773,2.65567765567766,32.7656270432053
1743285225021,17:53:45.021,-1,1109.89010989011,2.65567765567766,32.7656270432053
1743285225041,17:53:45.041,-1,1102.5641025641,2.65421245421245,32.7656270432053
1743285225060,17:53:45.060,-1,1101.8315018315,2.65421245421245,32.7656270432053
1743285225080,17:53:45.080,-1,1089.37728937729,2.65421245421245,32.7656270432053
1743285225099,17:53:45.099,-1,1075.45787545788,2.65274725274725,32.7656270432053
1743285225119,17:53:45.119,-1,1071.79487179487,2.65274725274725,32.7656270432053
1743285225138,17:53:45.138,-1,1065.93406593407,2.65274725274725,32.7656270432053
1743285225158,17:53:45.158,-1,1049.08424908425,2.65128205128205,32.7656270432053
1743285225177,17:53:45.177,-1,1038.09523809524,2.65128205128205,32.7656270432053
1743285225197,17:53:45.197,-1,1032.96703296703,2.65128205128205,32.7656270432053
1743285225216,17:53:45.216,-1,1020.51282051282,2.65128205128205,32.7656270432053
1743285225236,17:53:45.236,-1,1019.78021978022,2.64981684981685,32.7656270432053
1743285225255,17:53:45.255,-1,1035.89743589744,2.64981684981685,32.7656270432053
1743285225275,17:53:45.275,-1,1076.92307692308,2.64981684981685,32.7656270432053
1743285225294,17:53:45.294,-1,1159.70695970696,2.64835164835165,32.7656270432053
1743285225314,17:53:45.314,-1,1252.01465201465,2.64835164835165,32.7656270432053
1743285225333,17:53:45.333,-1,1334.06593406593,2.64835164835165,32.7656270432053
1743285225353,17:53:45.353,-1,1397.0695970696,2.64835164835165,32.7656270432053
1743285225372,17:53:45.372,-1,1452.74725274725,2.64835164835165,32.7656270432053
1743285225392,17:53:45.392,-1,1482.05128205128,2.64688644688645,32.7656270432053
1743285225411,17:53:45.411,-1,1487.91208791209,2.64688644688645,32.7656270432053
1743285225431,17:53:45.431,-1,1491.57509157509,2.64542124542125,32.7656270432053
1743285225450,17:53:45.450,-1,1486.44688644689,2.64542124542125,32.7656270432053
1743285225470,17:53:45.470,-1,1477.65567765568,2.64542124542125,32.7656270432053
1743285225489,17:53:45.489,-1,1460.80586080586,2.64542124542125,32.7656270432053
1743285225509,17:53:45.509,-1,1435.89743589744,2.64542124542125,32.7656270432053
1743285225528,17:53:45.528,-1,1396.336996337,2.64542124542125,32.7656270432053
1743285225548,17:53:45.548,-1,1356.04395604396,2.64542124542125,32.7656270432053
1743285225567,17:53:45.567,-1,1323.80952380952,2.64395604395604,32.7656270432053
1743285225587,17:53:45.587,-1,1286.44688644689,2.64542124542125,32.7656270432053
1743285225606,17:53:45.606,-1,1247.61904761905,2.64395604395604,32.7656270432053
1743285225626,17:53:45.626,-1,1232.23443223443,2.64249084249084,32.7656270432053
1743285225645,17:53:45.645,-1,1212.45421245421,2.64249084249084,32.7656270432053
1743285225665,17:53:45.665,-1,1196.336996337,2.64249084249084,32.7656270432053
1743285225684,17:53:45.684,-1,1189.01098901099,2.64102564102564,32.7656270432053
1743285225704,17:53:45.704,-1,1178.75457875458,2.64102564102564,32.7656270432053
1743285225723,17:53:45.723,-1,1164.10256410256,2.64102564102564,32.7656270432053
1743285225743,17:53:45.743,-1,1150.91575091575,2.63956043956044,32.7656270432053
1743285225762,17:53:45.762,-1,1139.19413919414,2.63956043956044,32.7656270432053
1743285225782,17:53:45.782,-1,1131.13553113553,2.63956043956044,32.7656270432053
1743285225801,17:53:45.801,-1,1122.34432234432,2.63956043956044,32.7656270432053
1743285225821,17:53:45.821,-1,1115.01831501831,2.63956043956044,32.7656270432053
1743285225840,17:53:45.840,-1,1099.6336996337,2.63809523809524,32.7656270432053
1743285225860,17:53:45.860,-1,1095.2380952381,2.63809523809524,32.7656270432053
1743285225879,17:53:45.879,-1,1098.1684981685,2.63663003663004,32.7656270432053
1743285225899,17:53:45.899,-1,1103.2967032967,2.63809523809524,32.7656270432053
1743285225918,17:53:45.918,-1,1111.35531135531,2.63663003663004,32.7656270432053
1743285225938,17:53:45.938,-1,1112.82051282051,2.63663003663004,32.7656270432053
1743285225957,17:53:45.957,-1,1102.5641025641,2.63663003663004,32.7656270432053
1743285225977,17:53:45.977,-1,1090.10989010989,2.63516483516484,32.7656270432053
1743285225996,17:53:45.996,-1,1065.93406593407,2.63516483516484,32.7706311475486
1743285226016,17:53:46.016,-1,1060.80586080586,2.63369963369963,32.7706311475486
1743285226035,17:53:46.035,-1,1080.58608058608,2.63369963369963,32.7706311475486
1743285226055,17:53:46.055,-1,1131.13553113553,2.63223443223443,32.7706311475486
1743285226074,17:53:46.074,-1,1191.20879120879,2.63223443223443,32.7706311475486
1743285226094,17:53:46.094,-1,1260.07326007326,2.63223443223443,32.7706311475486
1743285226113,17:53:46.113,-1,1320.14652014652,2.63076923076923,32.7706311475486
1743285226133,17:53:46.133,-1,1374.35897435897,2.63076923076923,32.7706311475486
1743285226152,17:53:46.152,-1,1410.98901098901,2.63076923076923,32.7706311475486
1743285226172,17:53:46.172,-1,1449.08424908425,2.63076923076923,32.7706311475486
1743285226191,17:53:46.191,-1,1468.13186813187,2.63076923076923,32.7706311475486
1743285226211,17:53:46.211,-1,1481.31868131868,2.62930402930403,32.7706311475486
1743285226230,17:53:46.230,-1,1490.10989010989,2.62930402930403,32.7706311475486
1743285226250,17:53:46.250,-1,1487.17948717949,2.62930402930403,32.7706311475486
1743285226269,17:53:46.269,-1,1461.53846153846,2.62930402930403,32.7706311475486
1743285226289,17:53:46.289,-1,1440.29304029304,2.62930402930403,32.7706311475486
1743285226308,17:53:46.308,-1,1417.58241758242,2.62783882783883,32.7706311475486
1743285226328,17:53:46.328,-1,1390.47619047619,2.62783882783883,32.7706311475486
1743285226347,17:53:46.347,-1,1350.18315018315,2.62783882783883,32.7706311475486
1743285226367,17:53:46.367,-1,1328.93772893773,2.62783882783883,32.7706311475486
1743285226386,17:53:46.386,-1,1311.35531135531,2.62637362637363,32.7706311475486
1743285226406,17:53:46.406,-1,1303.2967032967,2.62637362637363,32.7706311475486
1743285226425,17:53:46.425,-1,1296.7032967033,2.62637362637363,32.7706311475486
1743285226445,17:53:46.445,-1,1290.10989010989,2.62637362637363,32.7706311475486
1743285226464,17:53:46.464,-1,1282.05128205128,2.62490842490842,32.7706311475486
1743285226484,17:53:46.484,-1,1262.27106227106,2.62490842490842,32.7706311475486
1743285226503,17:53:46.503,-1,1251.28205128205,2.62344322344322,32.7706311475486
1743285226523,17:53:46.523,-1,1237.36263736264,2.62344322344322,32.7706311475486
1743285226542,17:53:46.542,-1,1224.17582417582,2.62344322344322,32.7706311475486
1743285226562,17:53:46.562,-1,1217.58241758242,2.62197802197802,32.7706311475486
1743285226581,17:53:46.581,-1,1204.3956043956,2.62197802197802,32.7706311475486
1743285226601,17:53:46.601,-1,1183.88278388278,2.62197802197802,32.7706311475486
1743285226621,17:53:46.620,-1,1177.28937728938,2.62197802197802,32.7706311475486
1743285226640,17:53:46.640,-1,1164.10256410256,2.62051282051282,32.7706311475486
1743285226660,17:53:46.659,-1,1156.77655677656,2.61904761904762,32.7706311475486
1743285226679,17:53:46.679,-1,1158.97435897436,2.61904761904762,32.7706311475486
1743285226699,17:53:46.698,-1,1158.97435897436,2.61904761904762,32.7706311475486
1743285226718,17:53:46.718,-1,1157.50915750916,2.62051282051282,32.7706311475486
1743285226738,17:53:46.738,-1,1164.10256410256,2.61904761904762,32.7706311475486
1743285226757,17:53:46.757,-1,1178.75457875458,2.61904761904762,32.7706311475486
1743285226777,17:53:46.777,-1,1178.75457875458,2.61758241758242,32.7706311475486
1743285226796,17:53:46.796,-1,1171.42857142857,2.61758241758242,32.7706311475486
1743285226816,17:53:46.816,-1,1167.03296703297,2.61758241758242,32.7706311475486
1743285226835,17:53:46.835,-1,1161.17216117216,2.61758241758242,32.7706311475486
1743285226855,17:53:46.855,-1,1182.41758241758,2.61758241758242,32.7706311475486
1743285226874,17:53:46.874,-1,1213.18681318681,2.61611721611722,32.7706311475486
1743285226894,17:53:46.894,-1,1262.27106227106,2.61611721611722,32.7706311475486
1743285226913,17:53:46.913,-1,1331.86813186813,2.61465201465201,32.7706311475486
1743285226933,17:53:46.933,-1,1393.40659340659,2.61465201465201,32.7706311475486
1743285226952,17:53:46.952,-1,1449.81684981685,2.61465201465201,32.7706311475486
1743285226972,17:53:46.972,-1,1493.77289377289,2.61465201465201,32.7706311475486
1743285226991,17:53:46.991,-1,1530.40293040293,2.61318681318681,32.7656270432053
1743285227011,17:53:47.011,-1,1543.58974358974,2.61318681318681,32.7656270432053
1743285227030,17:53:47.030,-1,1563.36996336996,2.61318681318681,32.7656270432053
1743285227050,17:53:47.050,-1,1580.95238095238,2.61318681318681,32.7656270432053
1743285227069,17:53:47.069,-1,1580.21978021978,2.61318681318681,32.7656270432053
1743285227089,17:53:47.089,-1,1561.90476190476,2.61318681318681,32.7656270432053
1743285227108,17:53:47.108,-1,1544.32234432234,2.61172161172161,32.7656270432053
1743285227128,17:53:47.128,-1,1513.55311355311,2.61172161172161,32.7656270432053
1743285227147,17:53:47.147,-1,1483.51648351648,2.61172161172161,32.7656270432053
1743285227167,17:53:47.167,-1,1466.66666666667,2.61172161172161,32.7656270432053
1743285227186,17:53:47.186,-1,1450.54945054945,2.61172161172161,32.7656270432053
1743285227206,17:53:47.206,-1,1430.03663003663,2.61172161172161,32.7656270432053
1743285227225,17:53:47.225,-1,1416.84981684982,2.61025641025641,32.7656270432053
1743285227245,17:53:47.245,-1,1408.05860805861,2.60879120879121,32.7656270432053
1743285227264,17:53:47.264,-1,1406.59340659341,2.61025641025641,32.7656270432053
1743285227284,17:53:47.284,-1,1401.4652014652,2.60879120879121,32.7656270432053
1743285227303,17:53:47.303,-1,1391.94139194139,2.60879120879121,32.7656270432053
1743285227323,17:53:47.323,-1,1382.41758241758,2.60879120879121,32.7656270432053
1743285227342,17:53:47.342,-1,1360.43956043956,2.60732600732601,32.7656270432053
1743285227362,17:53:47.362,-1,1339.19413919414,2.60732600732601,32.7656270432053
1743285227381,17:53:47.381,-1,1328.20512820513,2.60732600732601,32.7656270432053
1743285227401,17:53:47.401,-1,1317.21611721612,2.60732600732601,32.7656270432053
1743285227420,17:53:47.420,-1,1298.9010989011,2.60732600732601,32.7656270432053
1743285227440,17:53:47.440,-1,1294.50549450549,2.60732600732601,32.7656270432053
1743285227459,17:53:47.459,-1,1293.77289377289,2.60586080586081,32.7656270432053
1743285227479,17:53:47.479,-1,1294.50549450549,2.6043956043956,32.7656270432053
1743285227498,17:53:47.498,-1,1284.98168498168,2.6043956043956,32.7656270432053
1743285227518,17:53:47.518,-1,1276.19047619048,2.6043956043956,32.7656270432053
1743285227537,17:53:47.537,-1,1276.19047619048,2.6043956043956,32.7656270432053
1743285227557,17:53:47.557,-1,1278.38827838828,2.6043956043956,32.7656270432053
1743285227576,17:53:47.576,-1,1279.85347985348,2.6029304029304,32.7656270432053
1743285227596,17:53:47.596,-1,1296.7032967033,2.6029304029304,32.7656270432053
1743285227615,17:53:47.615,-1,1328.93772893773,2.6014652014652,32.7656270432053
1743285227635,17:53:47.635,-1,1405.86080586081,2.6029304029304,32.7656270432053
1743285227654,17:53:47.654,-1,1490.10989010989,2.6014652014652,32.7656270432053
1743285227674,17:53:47.674,-1,1564.83516483516,2.6014652014652,32.7656270432053
1743285227693,17:53:47.693,-1,1630.76923076923,2.6,32.7656270432053
1743285227713,17:53:47.713,-1,1683.51648351648,2.6,32.7656270432053
1743285227732,17:53:47.732,-1,1726.73992673993,2.5985347985348,32.7656270432053
1743285227752,17:53:47.752,-1,1745.78754578755,2.5985347985348,32.7656270432053
1743285227771,17:53:47.771,-1,1750.91575091575,2.5985347985348,32.7656270432053
1743285227791,17:53:47.791,-1,1758.97435897436,2.5970695970696,32.7656270432053
1743285227810,17:53:47.810,-1,1747.98534798535,2.5985347985348,32.7656270432053
1743285227830,17:53:47.830,-1,1710.62271062271,2.5985347985348,32.7656270432053
1743285227849,17:53:47.849,-1,1652.74725274725,2.5970695970696,32.7656270432053
1743285227869,17:53:47.869,-1,1600,2.5970695970696,32.7656270432053
1743285227888,17:53:47.888,-1,1567.76556776557,2.5970695970696,32.7656270432053
1743285227908,17:53:47.908,-1,1548.71794871795,2.5956043956044,32.7656270432053
1743285227927,17:53:47.927,-1,1539.92673992674,2.5956043956044,32.7656270432053
1743285227947,17:53:47.947,-1,1539.92673992674,2.5956043956044,32.7656270432053
1743285227966,17:53:47.966,-1,1533.33333333333,2.5956043956044,32.7656270432053
1743285227986,17:53:47.986,-1,1523.07692307692,2.5956043956044,32.775635246071
1743285228005,17:53:48.005,-1,1501.0989010989,2.5956043956044,32.775635246071
1743285228025,17:53:48.025,-1,1478.38827838828,2.5956043956044,32.775635246071
1743285228044,17:53:48.044,-1,1438.09523809524,2.59413919413919,32.775635246071
1743285228064,17:53:48.064,-1,1401.4652014652,2.59413919413919,32.775635246071
1743285228083,17:53:48.083,-1,1380.95238095238,2.59413919413919,32.775635246071
1743285228103,17:53:48.103,-1,1375.09157509157,2.59413919413919,32.775635246071
1743285228122,17:53:48.122,-1,1364.83516483516,2.59267399267399,32.775635246071
1743285228142,17:53:48.142,-1,1341.39194139194,2.59267399267399,32.775635246071
1743285228161,17:53:48.161,-1,1321.61172161172,2.59267399267399,32.775635246071
1743285228181,17:53:48.181,-1,1321.61172161172,2.59120879120879,32.775635246071
1743285228200,17:53:48.200,-1,1315.75091575092,2.59267399267399,32.775635246071
1743285228220,17:53:48.220,-1,1303.2967032967,2.59267399267399,32.775635246071
1743285228239,17:53:48.239,-1,1286.44688644689,2.59267399267399,32.775635246071
1743285228259,17:53:48.259,-1,1271.79487179487,2.59120879120879,32.775635246071
1743285228278,17:53:48.278,-1,1265.93406593407,2.58974358974359,32.775635246071
1743285228298,17:53:48.298,-1,1263.73626373626,2.58974358974359,32.775635246071
1743285228317,17:53:48.317,-1,1271.79487179487,2.58974358974359,32.775635246071
1743285228337,17:53:48.337,-1,1307.69230769231,2.58974358974359,32.775635246071
1743285228356,17:53:48.356,-1,1400.7326007326,2.58974358974359,32.775635246071
1743285228376,17:53:48.376,-1,1525.27472527473,2.58827838827839,32.775635246071
1743285228395,17:53:48.395,-1,1646.88644688645,2.58827838827839,32.775635246071
1743285228415,17:53:48.415,-1,1767.03296703297,2.58827838827839,32.775635246071
1743285228434,17:53:48.434,-1,1873.26007326007,2.58827838827839,32.775635246071
1743285228454,17:53:48.454,-1,1953.84615384615,2.58827838827839,32.775635246071
1743285228473,17:53:48.473,-1,1989.74358974359,2.58681318681319,32.775635246071
1743285228493,17:53:48.493,-1,2021.24542124542,2.58681318681319,32.775635246071
1743285228512,17:53:48.512,-1,2053.47985347985,2.58534798534799,32.775635246071
1743285228532,17:53:48.532,-1,2058.60805860806,2.58534798534799,32.775635246071
1743285228551,17:53:48.551,-1,2043.22344322344,2.58534798534799,32.775635246071
1743285228571,17:53:48.571,-1,2006.59340659341,2.58534798534799,32.775635246071
1743285228590,17:53:48.590,-1,1925.27472527473,2.58534798534799,32.775635246071
1743285228610,17:53:48.610,-1,1851.28205128205,2.58534798534799,32.775635246071
1743285228629,17:53:48.629,-1,1797.8021978022,2.58388278388278,32.775635246071
1743285228649,17:53:48.649,-1,1736.26373626374,2.58388278388278,32.775635246071
1743285228668,17:53:48.668,-1,1701.8315018315,2.58388278388278,32.775635246071
1743285228688,17:53:48.688,-1,1668.13186813187,2.58388278388278,32.775635246071
1743285228707,17:53:48.707,-1,1632.96703296703,2.58241758241758,32.775635246071
1743285228727,17:53:48.727,-1,1610.25641025641,2.58241758241758,32.775635246071
1743285228746,17:53:48.746,-1,1585.34798534799,2.58241758241758,32.775635246071
1743285228766,17:53:48.766,-1,1555.31135531136,2.58095238095238,32.775635246071
1743285228785,17:53:48.785,-1,1520.14652014652,2.58095238095238,32.775635246071
1743285228805,17:53:48.805,-1,1481.31868131868,2.58095238095238,32.775635246071
1743285228824,17:53:48.824,-1,1438.82783882784,2.58095238095238,32.775635246071
1743285228844,17:53:48.844,-1,1408.79120879121,2.57948717948718,32.775635246071
1743285228863,17:53:48.863,-1,1386.08058608059,2.57948717948718,32.775635246071
1743285228883,17:53:48.883,-1,1365.56776556777,2.57948717948718,32.775635246071
1743285228902,17:53:48.902,-1,1337.72893772894,2.57948717948718,32.775635246071
1743285228922,17:53:48.922,-1,1315.01831501831,2.57948717948718,32.775635246071
1743285228941,17:53:48.941,-1,1300.3663003663,2.57802197802198,32.775635246071
1743285228961,17:53:48.961,-1,1293.77289377289,2.57802197802198,32.775635246071
1743285228980,17:53:48.980,-1,1288.64468864469,2.57802197802198,32.7706311475486
1743285229000,17:53:49.000,-1,1278.38827838828,2.57655677655678,32.7706311475486
1743285229019,17:53:49.019,-1,1265.93406593407,2.57802197802198,32.7706311475486
1743285229039,17:53:49.039,-1,1246.88644688645,2.57655677655678,32.7706311475486
1743285229058,17:53:49.058,-1,1238.82783882784,2.57509157509157,32.7706311475486
1743285229078,17:53:49.078,-1,1236.63003663004,2.57509157509157,32.7706311475486
1743285229097,17:53:49.097,-1,1257.14285714286,2.57509157509157,32.7706311475486
1743285229117,17:53:49.117,-1,1307.69230769231,2.57655677655678,32.7706311475486
1743285229136,17:53:49.136,-1,1419.78021978022,2.57509157509157,32.7706311475486
1743285229156,17:53:49.156,-1,1589.74358974359,2.57509157509157,32.7706311475486
1743285229175,17:53:49.175,-1,1766.30036630037,2.57509157509157,32.7706311475486
1743285229195,17:53:49.195,-1,1920.87912087912,2.57509157509157,32.7706311475486
1743285229214,17:53:49.214,-1,2047.61904761905,2.57509157509157,32.7706311475486
1743285229234,17:53:49.234,-1,2131.13553113553,2.57655677655678,32.7706311475486
1743285229253,17:53:49.253,-1,2172.16117216117,2.57655677655678,32.7706311475486
1743285229273,17:53:49.273,-1,2192.67399267399,2.57655677655678,32.7706311475486
1743285229292,17:53:49.292,-1,2193.40659340659,2.57509157509157,32.7706311475486
1743285229312,17:53:49.312,-1,2183.88278388278,2.57509157509157,32.7706311475486
1743285229331,17:53:49.331,-1,2164.10256410256,2.57509157509157,32.7706311475486
1743285229351,17:53:49.351,-1,2115.75091575092,2.57509157509157,32.7706311475486
1743285229370,17:53:49.370,-1,2032.96703296703,2.57655677655678,32.7706311475486
1743285229390,17:53:49.390,-1,1918.68131868132,2.57509157509157,32.7706311475486
1743285229409,17:53:49.409,-1,1813.91941391941,2.57509157509157,32.7706311475486
1743285229429,17:53:49.429,-1,1728.20512820513,2.57509157509157,32.7706311475486
1743285229448,17:53:49.448,-1,1679.85347985348,2.57509157509157,32.7706311475486
1743285229468,17:53:49.468,-1,1652.01465201465,2.57655677655678,32.7706311475486
1743285229487,17:53:49.487,-1,1641.02564102564,2.57655677655678,32.7706311475486
1743285229507,17:53:49.507,-1,1618.31501831502,2.57509157509157,32.7706311475486
1743285229526,17:53:49.526,-1,1575.82417582418,2.57509157509157,32.7706311475486
1743285229546,17:53:49.546,-1,1531.86813186813,2.57509157509157,32.7706311475486
1743285229565,17:53:49.565,-1,1485.71428571429,2.57509157509157,32.7706311475486
1743285229585,17:53:49.585,-1,1447.61904761905,2.57509157509157,32.7706311475486
1743285229604,17:53:49.604,-1,1422.71062271062,2.57655677655678,32.7706311475486
1743285229624,17:53:49.624,-1,1398.5347985348,2.57655677655678,32.7706311475486
1743285229643,17:53:49.643,-1,1364.10256410256,2.57509157509157,32.7706311475486
1743285229663,17:53:49.663,-1,1339.19413919414,2.57509157509157,32.7706311475486
1743285229682,17:53:49.682,-1,1305.49450549451,2.57655677655678,32.7706311475486
1743285229702,17:53:49.702,-1,1287.17948717949,2.57509157509157,32.7706311475486
1743285229721,17:53:49.721,-1,1290.10989010989,2.57655677655678,32.7706311475486
1743285229741,17:53:49.741,-1,1282.05128205128,2.57655677655678,32.7706311475486
1743285229760,17:53:49.760,-1,1259.34065934066,2.57509157509157,32.7706311475486
1743285229780,17:53:49.780,-1,1249.08424908425,2.57509157509157,32.7706311475486
1743285229799,17:53:49.799,-1,1238.82783882784,2.57509157509157,32.7706311475486
1743285229819,17:53:49.819,-1,1219.78021978022,2.57509157509157,32.7706311475486
1743285229838,17:53:49.838,-1,1195.6043956044,2.57509157509157,32.7706311475486
1743285229858,17:53:49.858,-1,1186.81318681319,2.57509157509157,32.7706311475486
1743285229877,17:53:49.877,-1,1177.28937728938,2.57509157509157,32.7706311475486
1743285229897,17:53:49.897,-1,1179.48717948718,2.57509157509157,32.7706311475486
1743285229916,17:53:49.916,-1,1230.03663003663,2.57509157509157,32.7706311475486
1743285229936,17:53:49.936,-1,1361.90476190476,2.57509157509157,32.7706311475486
1743285229955,17:53:49.955,-1,1565.56776556777,2.57509157509157,32.7706311475486
1743285229975,17:53:49.975,-1,1772.16117216117,2.57509157509157,32.775635246071
1743285229994,17:53:49.994,-1,1926.73992673993,2.57509157509157,32.775635246071
1743285230014,17:53:50.014,-1,2030.76923076923,2.57509157509157,32.775635246071
1743285230033,17:53:50.033,-1,2084.24908424908,2.57509157509157,32.775635246071
1743285230053,17:53:50.053,-1,2097.4358974359,2.57509157509157,32.775635246071
1743285230072,17:53:50.072,-1,2092.30769230769,2.57509157509157,32.775635246071
1743285230092,17:53:50.092,-1,2083.51648351648,2.57509157509157,32.775635246071
1743285230111,17:53:50.111,-1,2048.35164835165,2.57509157509157,32.775635246071
1743285230131,17:53:50.131,-1,1987.54578754579,2.57509157509157,32.775635246071
1743285230150,17:53:50.150,-1,1911.35531135531,2.57509157509157,32.775635246071
1743285230170,17:53:50.170,-1,1818.31501831502,2.57509157509157,32.775635246071
1743285230189,17:53:50.189,-1,1716.48351648352,2.57509157509157,32.775635246071
1743285230209,17:53:50.209,-1,1616.84981684982,2.57509157509157,32.775635246071
1743285230228,17:53:50.228,-1,1561.17216117216,2.57362637362637,32.775635246071
1743285230248,17:53:50.248,-1,1536.99633699634,2.57509157509157,32.775635246071
1743285230267,17:53:50.267,-1,1512.82051282051,2.57509157509157,32.775635246071
1743285230287,17:53:50.287,-1,1497.4358974359,2.57509157509157,32.775635246071
1743285230306,17:53:50.306,-1,1476.19047619048,2.57509157509157,32.775635246071
1743285230326,17:53:50.326,-1,1442.49084249084,2.57362637362637,32.775635246071
1743285230345,17:53:50.345,-1,1416.84981684982,2.57362637362637,32.775635246071
1743285230365,17:53:50.365,-1,1400.7326007326,2.57362637362637,32.775635246071
1743285230384,17:53:50.384,-1,1366.30036630037,2.57362637362637,32.775635246071
1743285230404,17:53:50.404,-1,1323.07692307692,2.57362637362637,32.775635246071
1743285230423,17:53:50.423,-1,1290.84249084249,2.57362637362637,32.775635246071
1743285230443,17:53:50.443,-1,1248.35164835165,2.57362637362637,32.775635246071
1743285230462,17:53:50.462,-1,1213.18681318681,2.57362637362637,32.775635246071
1743285230482,17:53:50.482,-1,1185.34798534799,2.57216117216117,32.775635246071
1743285230501,17:53:50.501,-1,1166.30036630037,2.57216117216117,32.775635246071
1743285230521,17:53:50.521,-1,1150.18315018315,2.57216117216117,32.775635246071
1743285230540,17:53:50.540,-1,1132.60073260073,2.57216117216117,32.775635246071
1743285230560,17:53:50.560,-1,1142.85714285714,2.57069597069597,32.775635246071
1743285230579,17:53:50.579,-1,1139.92673992674,2.57069597069597,32.775635246071
1743285230599,17:53:50.599,-1,1127.47252747253,2.57069597069597,32.775635246071
1743285230618,17:53:50.618,-1,1108.42490842491,2.57216117216117,32.775635246071
1743285230638,17:53:50.638,-1,1090.10989010989,2.57069597069597,32.775635246071
1743285230657,17:53:50.657,-1,1082.05128205128,2.57069597069597,32.775635246071
1743285230677,17:53:50.677,-1,1080.58608058608,2.57069597069597,32.775635246071
1743285230696,17:53:50.696,-1,1088.64468864469,2.56923076923077,32.775635246071
1743285230716,17:53:50.716,-1,1130.40293040293,2.56923076923077,32.775635246071
1743285230735,17:53:50.735,-1,1228.57142857143,2.56923076923077,32.775635246071
1743285230755,17:53:50.755,-1,1361.17216117216,2.56923076923077,32.775635246071
1743285230774,17:53:50.774,-1,1503.2967032967,2.56923076923077,32.775635246071
1743285230794,17:53:50.794,-1,1647.61904761905,2.56923076923077,32.775635246071
1743285230813,17:53:50.813,-1,1760.43956043956,2.56923076923077,32.775635246071
1743285230833,17:53:50.833,-1,1828.57142857143,2.56923076923077,32.775635246071
1743285230852,17:53:50.852,-1,1835.16483516484,2.56923076923077,32.775635246071
1743285230872,17:53:50.872,-1,1828.57142857143,2.56776556776557,32.775635246071
1743285230891,17:53:50.891,-1,1824.17582417582,2.56776556776557,32.775635246071
1743285230911,17:53:50.911,-1,1811.72161172161,2.56776556776557,32.775635246071
1743285230930,17:53:50.930,-1,1774.35897435897,2.56776556776557,32.775635246071
1743285230950,17:53:50.950,-1,1711.35531135531,2.56776556776557,32.775635246071
1743285230969,17:53:50.969,-1,1629.30402930403,2.56776556776557,32.7706311475486
1743285230989,17:53:50.989,-1,1550.91575091575,2.56776556776557,32.7706311475486
1743285231008,17:53:51.008,-1,1485.71428571429,2.56630036630037,32.7706311475486
1743285231028,17:53:51.028,-1,1429.30402930403,2.56630036630037,32.7706311475486
1743285231047,17:53:51.047,-1,1429.30402930403,2.56630036630037,32.7706311475486
1743285231067,17:53:51.067,-1,1339.92673992674,2.56630036630037,32.7706311475486
1743285231086,17:53:51.086,-1,1325.27472527473,2.56630036630037,32.7706311475486
1743285231106,17:53:51.106,-1,1319.41391941392,2.56483516483516,32.7706311475486
1743285231125,17:53:51.125,-1,1311.35531135531,2.56483516483516,32.7706311475486
1743285231145,17:53:51.145,-1,1300.3663003663,2.56336996336996,32.7706311475486
1743285231164,17:53:51.164,-1,1279.85347985348,2.56483516483516,32.7706311475486
1743285231184,17:53:51.184,-1,1261.53846153846,2.56336996336996,32.7706311475486
1743285231203,17:53:51.203,-1,1233.69963369963,2.56336996336996,32.7706311475486
1743285231223,17:53:51.223,-1,1205.86080586081,2.56336996336996,32.7706311475486
1743285231242,17:53:51.242,-1,1186.08058608059,2.56190476190476,32.7706311475486
1743285231262,17:53:51.262,-1,1175.09157509158,2.56190476190476,32.7706311475486
1743285231281,17:53:51.281,-1,1154.57875457875,2.56190476190476,32.7706311475486
1743285231301,17:53:51.301,-1,1134.06593406593,2.56190476190476,32.7706311475486
1743285231320,17:53:51.320,-1,1123.80952380952,2.56190476190476,32.7706311475486
1743285231340,17:53:51.340,-1,1107.69230769231,2.56190476190476,32.7706311475486
1743285231359,17:53:51.359,-1,1096.7032967033,2.56043956043956,32.7706311475486
1743285231379,17:53:51.379,-1,1086.44688644689,2.56043956043956,32.7706311475486
1743285231398,17:53:51.398,-1,1079.85347985348,2.55897435897436,32.7706311475486
1743285231418,17:53:51.418,-1,1073.26007326007,2.55897435897436,32.7706311475486
1743285231437,17:53:51.437,-1,1062.27106227106,2.55897435897436,32.7706311475486
1743285231457,17:53:51.457,-1,1068.13186813187,2.55750915750916,32.7706311475486
1743285231476,17:53:51.476,-1,1117.94871794872,2.55750915750916,32.7706311475486
1743285231496,17:53:51.496,-1,1208.05860805861,2.55604395604396,32.7706311475486
1743285231515,17:53:51.515,-1,1309.15750915751,2.55750915750916,32.7706311475486
1743285231535,17:53:51.535,-1,1409.52380952381,2.55604395604396,32.7706311475486
1743285231554,17:53:51.554,-1,1490.10989010989,2.55604395604396,32.7706311475486
1743285231574,17:53:51.574,-1,1543.58974358974,2.55604395604396,32.7706311475486
1743285231593,17:53:51.593,-1,1567.03296703297,2.55604395604396,32.7706311475486
1743285231613,17:53:51.613,-1,1581.68498168498,2.55604395604396,32.7706311475486
1743285231632,17:53:51.632,-1,1573.62637362637,2.55457875457875,32.7706311475486
1743285231652,17:53:51.652,-1,1567.03296703297,2.55604395604396,32.7706311475486
1743285231671,17:53:51.671,-1,1547.98534798535,2.55457875457875,32.7706311475486
1743285231691,17:53:51.691,-1,1504.7619047619,2.55457875457875,32.7706311475486
1743285231710,17:53:51.710,-1,1450.54945054945,2.55457875457875,32.7706311475486
1743285231730,17:53:51.730,-1,1397.8021978022,2.55457875457875,32.7706311475486
1743285231749,17:53:51.749,-1,1336.99633699634,2.55311355311355,32.7706311475486
1743285231769,17:53:51.769,-1,1282.78388278388,2.55457875457875,32.7706311475486
1743285231788,17:53:51.788,-1,1257.14285714286,2.55457875457875,32.7706311475486
1743285231808,17:53:51.808,-1,1235.16483516484,2.55311355311355,32.7706311475486
1743285231827,17:53:51.827,-1,1221.24542124542,2.55164835164835,32.7706311475486
1743285231847,17:53:51.847,-1,1221.24542124542,2.55164835164835,32.7706311475486
1743285231866,17:53:51.866,-1,1211.72161172161,2.55164835164835,32.7706311475486
1743285231886,17:53:51.886,-1,1194.87179487179,2.55164835164835,32.7706311475486
1743285231905,17:53:51.905,-1,1183.88278388278,2.55164835164835,32.7706311475486
1743285231925,17:53:51.925,-1,1166.30036630037,2.55164835164835,32.7706311475486
1743285231944,17:53:51.944,-1,1148.71794871795,2.55018315018315,32.7706311475486
1743285231964,17:53:51.964,-1,1144.32234432234,2.55018315018315,32.7706311475486
1743285231983,17:53:51.983,-1,1135.53113553114,2.54871794871795,32.7706311475486
1743285232003,17:53:52.003,-1,1120.87912087912,2.54871794871795,32.7706311475486
1743285232022,17:53:52.022,-1,1101.0989010989,2.54871794871795,32.7706311475486
1743285232042,17:53:52.042,-1,1077.65567765568,2.54725274725275,32.7706311475486
1743285232061,17:53:52.061,-1,1071.79487179487,2.54725274725275,32.7706311475486
1743285232081,17:53:52.081,-1,1066.66666666667,2.54725274725275,32.7706311475486
1743285232100,17:53:52.100,-1,1063.00366300366,2.54725274725275,32.7706311475486
1743285232120,17:53:52.120,-1,1065.20146520147,2.54725274725275,32.7706311475486
1743285232139,17:53:52.139,-1,1067.39926739927,2.54578754578755,32.7706311475486
1743285232159,17:53:52.159,-1,1055.67765567766,2.54578754578755,32.7706311475486
1743285232178,17:53:52.178,-1,1052.01465201465,2.54578754578755,32.7706311475486
1743285232198,17:53:52.198,-1,1076.19047619048,2.54432234432234,32.7706311475486
1743285232217,17:53:52.217,-1,1147.98534798535,2.54432234432234,32.7706311475486
1743285232237,17:53:52.237,-1,1241.75824175824,2.54432234432234,32.7706311475486
1743285232256,17:53:52.256,-1,1336.26373626374,2.54432234432234,32.7706311475486
1743285232276,17:53:52.276,-1,1416.84981684982,2.54432234432234,32.7706311475486
1743285232295,17:53:52.295,-1,1470.32967032967,2.54432234432234,32.7706311475486
1743285232315,17:53:52.315,-1,1512.82051282051,2.54432234432234,32.7706311475486
1743285232334,17:53:52.334,-1,1545.78754578755,2.54432234432234,32.7706311475486
1743285232354,17:53:52.354,-1,1554.57875457875,2.54285714285714,32.7706311475486
1743285232373,17:53:52.373,-1,1549.45054945055,2.54285714285714,32.7706311475486
1743285232393,17:53:52.393,-1,1521.61172161172,2.54285714285714,32.7706311475486
1743285232412,17:53:52.412,-1,1487.17948717949,2.54139194139194,32.7706311475486
1743285232432,17:53:52.432,-1,1455.67765567766,2.54139194139194,32.7706311475486
1743285232451,17:53:52.451,-1,1413.18681318681,2.54139194139194,32.7706311475486
1743285232471,17:53:52.471,-1,1369.23076923077,2.54139194139194,32.7706311475486
1743285232490,17:53:52.490,-1,1339.92673992674,2.54139194139194,32.7706311475486
1743285232510,17:53:52.510,-1,1306.95970695971,2.54139194139194,32.7706311475486
1743285232529,17:53:52.529,-1,1273.99267399267,2.54285714285714,32.7706311475486
1743285232549,17:53:52.549,-1,1247.61904761905,2.54285714285714,32.7706311475486
1743285232568,17:53:52.568,-1,1230.03663003663,2.54285714285714,32.7706311475486
1743285232588,17:53:52.588,-1,1227.10622710623,2.54285714285714,32.7706311475486
1743285232607,17:53:52.607,-1,1226.37362637363,2.54139194139194,32.7706311475486
1743285232627,17:53:52.627,-1,1216.11721611722,2.54139194139194,32.7706311475486
1743285232646,17:53:52.646,-1,1202.9304029304,2.54139194139194,32.7706311475486
1743285232666,17:53:52.666,-1,1190.47619047619,2.54139194139194,32.7706311475486
1743285232685,17:53:52.685,-1,1168.49816849817,2.54139194139194,32.7706311475486
1743285232705,17:53:52.705,-1,1157.50915750916,2.53992673992674,32.7706311475486
1743285232724,17:53:52.724,-1,1145.78754578755,2.53992673992674,32.7706311475486
1743285232744,17:53:52.744,-1,1129.67032967033,2.53846153846154,32.7706311475486
1743285232763,17:53:52.763,-1,1112.08791208791,2.53846153846154,32.7706311475486
1743285232783,17:53:52.783,-1,1109.15750915751,2.53846153846154,32.7706311475486
1743285232802,17:53:52.802,-1,1115.01831501831,2.53846153846154,32.7706311475486
1743285232822,17:53:52.822,-1,1117.21611721612,2.53846153846154,32.7706311475486
1743285232841,17:53:52.841,-1,1112.82051282051,2.53846153846154,32.7706311475486
1743285232861,17:53:52.861,-1,1104.0293040293,2.53699633699634,32.7706311475486
1743285232880,17:53:52.880,-1,1093.04029304029,2.53699633699634,32.7706311475486
1743285232900,17:53:52.900,-1,1091.57509157509,2.53699633699634,32.7706311475486
1743285232919,17:53:52.919,-1,1099.6336996337,2.53553113553113,32.7706311475486
1743285232939,17:53:52.939,-1,1120.14652014652,2.53553113553113,32.7706311475486
1743285232958,17:53:52.958,-1,1146.52014652015,2.53553113553113,32.775635246071
1743285232978,17:53:52.978,-1,1201.4652014652,2.53553113553113,32.775635246071
1743285232997,17:53:52.997,-1,1290.84249084249,2.53406593406593,32.775635246071
1743285233017,17:53:53.017,-1,1386.08058608059,2.53406593406593,32.775635246071
1743285233036,17:53:53.036,-1,1450.54945054945,2.53406593406593,32.775635246071
1743285233056,17:53:53.056,-1,1494.50549450549,2.53406593406593,32.775635246071
1743285233075,17:53:53.075,-1,1534.06593406593,2.53406593406593,32.775635246071
1743285233095,17:53:53.095,-1,1550.91575091575,2.53406593406593,32.775635246071
1743285233114,17:53:53.114,-1,1557.50915750916,2.53260073260073,32.775635246071
1743285233134,17:53:53.134,-1,1563.36996336996,2.53260073260073,32.775635246071
1743285233153,17:53:53.153,-1,1553.84615384615,2.53260073260073,32.775635246071
1743285233173,17:53:53.173,-1,1534.79853479853,2.53260073260073,32.775635246071
1743285233192,17:53:53.192,-1,1498.1684981685,2.53113553113553,32.775635246071
1743285233212,17:53:53.212,-1,1461.53846153846,2.53113553113553,32.775635246071
1743285233231,17:53:53.231,-1,1424.17582417582,2.53113553113553,32.775635246071
1743285233251,17:53:53.251,-1,1380.95238095238,2.53113553113553,32.775635246071
1743285233270,17:53:53.270,-1,1345.78754578755,2.53113553113553,32.775635246071
1743285233290,17:53:53.290,-1,1327.47252747253,2.52967032967033,32.775635246071
1743285233309,17:53:53.309,-1,1321.61172161172,2.52967032967033,32.775635246071
1743285233329,17:53:53.329,-1,1317.21611721612,2.52820512820513,32.775635246071
1743285233348,17:53:53.348,-1,1306.95970695971,2.52820512820513,32.775635246071
1743285233368,17:53:53.368,-1,1297.4358974359,2.52820512820513,32.775635246071
1743285233387,17:53:53.387,-1,1275.45787545788,2.52820512820513,32.775635246071
1743285233407,17:53:53.407,-1,1244.68864468864,2.52820512820513,32.775635246071
1743285233426,17:53:53.426,-1,1230.03663003663,2.52673992673993,32.775635246071
1743285233446,17:53:53.446,-1,1216.84981684982,2.52673992673993,32.775635246071
1743285233465,17:53:53.465,-1,1208.79120879121,2.52673992673993,32.775635246071
1743285233485,17:53:53.485,-1,1210.25641025641,2.52673992673993,32.775635246071
1743285233504,17:53:53.504,-1,1199.2673992674,2.52673992673993,32.775635246071
1743285233524,17:53:53.524,-1,1178.75457875458,2.52527472527472,32.775635246071
1743285233543,17:53:53.543,-1,1168.49816849817,2.52527472527472,32.775635246071
1743285233563,17:53:53.563,-1,1169.23076923077,2.52380952380952,32.775635246071
1743285233582,17:53:53.582,-1,1164.10256410256,2.52380952380952,32.775635246071
1743285233602,17:53:53.602,-1,1162.63736263736,2.52380952380952,32.775635246071
1743285233621,17:53:53.621,-1,1162.63736263736,2.52234432234432,32.775635246071
1743285233641,17:53:53.641,-1,1159.70695970696,2.52234432234432,32.775635246071
1743285233660,17:53:53.660,-1,1156.04395604396,2.52234432234432,32.775635246071
1743285233680,17:53:53.680,-1,1155.31135531136,2.52234432234432,32.775635246071
1743285233699,17:53:53.699,-1,1140.65934065934,2.52087912087912,32.775635246071
1743285233719,17:53:53.719,-1,1117.21611721612,2.52087912087912,32.775635246071
1743285233738,17:53:53.738,-1,1119.41391941392,2.52087912087912,32.775635246071
1743285233758,17:53:53.758,-1,1166.30036630037,2.51941391941392,32.775635246071
1743285233777,17:53:53.777,-1,1251.28205128205,2.52087912087912,32.775635246071
1743285233797,17:53:53.797,-1,1341.39194139194,2.51941391941392,32.775635246071
1743285233816,17:53:53.816,-1,1421.24542124542,2.51941391941392,32.775635246071
1743285233836,17:53:53.836,-1,1499.6336996337,2.51941391941392,32.775635246071
1743285233855,17:53:53.855,-1,1561.90476190476,2.51941391941392,32.775635246071
1743285233875,17:53:53.875,-1,1609.52380952381,2.51794871794872,32.775635246071
1743285233894,17:53:53.894,-1,1634.43223443223,2.51794871794872,32.775635246071
1743285233914,17:53:53.914,-1,1637.36263736264,2.51648351648352,32.775635246071
1743285233933,17:53:53.933,-1,1628.57142857143,2.51648351648352,32.775635246071
1743285233953,17:53:53.953,-1,1608.79120879121,2.51648351648352,32.7706311475486
1743285233972,17:53:53.972,-1,1578.02197802198,2.51648351648352,32.7706311475486
1743285233992,17:53:53.992,-1,1536.99633699634,2.51648351648352,32.7706311475486
1743285234011,17:53:54.011,-1,1485.71428571429,2.51648351648352,32.7706311475486
1743285234031,17:53:54.031,-1,1441.02564102564,2.51648351648352,32.7706311475486
1743285234050,17:53:54.050,-1,1405.86080586081,2.51501831501831,32.7706311475486
1743285234070,17:53:54.070,-1,1379.48717948718,2.51501831501831,32.7706311475486
1743285234089,17:53:54.089,-1,1364.10256410256,2.51501831501831,32.7706311475486
1743285234109,17:53:54.109,-1,1365.56776556777,2.51501831501831,32.7706311475486
1743285234128,17:53:54.128,-1,1371.42857142857,2.51355311355311,32.7706311475486
1743285234148,17:53:54.148,-1,1379.48717948718,2.51355311355311,32.7706311475486
1743285234167,17:53:54.167,-1,1367.03296703297,2.51355311355311,32.7706311475486
1743285234187,17:53:54.187,-1,1337.72893772894,2.51355311355311,32.7706311475486
1743285234206,17:53:54.206,-1,1301.0989010989,2.51208791208791,32.7706311475486
1743285234226,17:53:54.226,-1,1267.39926739927,2.51208791208791,32.7706311475486
1743285234245,17:53:54.245,-1,1252.01465201465,2.51208791208791,32.7706311475486
1743285234265,17:53:54.265,-1,1242.49084249084,2.51208791208791,32.7706311475486
1743285234284,17:53:54.284,-1,1233.69963369963,2.51208791208791,32.7706311475486
1743285234304,17:53:54.304,-1,1230.03663003663,2.51062271062271,32.7706311475486
1743285234323,17:53:54.323,-1,1232.23443223443,2.51062271062271,32.7706311475486
1743285234343,17:53:54.343,-1,1219.78021978022,2.51062271062271,32.7706311475486
1743285234362,17:53:54.362,-1,1198.5347985348,2.51062271062271,32.7706311475486
1743285234382,17:53:54.382,-1,1185.34798534799,2.50915750915751,32.7706311475486
1743285234401,17:53:54.401,-1,1183.15018315018,2.50915750915751,32.7706311475486
1743285234421,17:53:54.421,-1,1186.08058608059,2.50915750915751,32.7706311475486
1743285234440,17:53:54.440,-1,1176.55677655678,2.50915750915751,32.7706311475486
1743285234460,17:53:54.460,-1,1168.49816849817,2.50769230769231,32.7706311475486
1743285234479,17:53:54.479,-1,1165.56776556777,2.50915750915751,32.7706311475486
1743285234499,17:53:54.499,-1,1173.62637362637,2.50769230769231,32.7706311475486
1743285234518,17:53:54.518,-1,1191.94139194139,2.50769230769231,32.7706311475486
1743285234538,17:53:54.538,-1,1241.75824175824,2.50769230769231,32.7706311475486
1743285234557,17:53:54.557,-1,1334.06593406593,2.50769230769231,32.7706311475486
1743285234577,17:53:54.577,-1,1445.42124542125,2.50769230769231,32.7706311475486
1743285234596,17:53:54.596,-1,1541.39194139194,2.50769230769231,32.7706311475486
1743285234616,17:53:54.616,-1,1594.13919413919,2.50622710622711,32.7706311475486
1743285234635,17:53:54.635,-1,1632.96703296703,2.50622710622711,32.7706311475486
1743285234655,17:53:54.655,-1,1673.99267399267,2.50769230769231,32.7706311475486
1743285234674,17:53:54.674,-1,1706.22710622711,2.50622710622711,32.7706311475486
1743285234694,17:53:54.694,-1,1720.87912087912,2.5047619047619,32.7706311475486
1743285234713,17:53:54.713,-1,1715.01831501831,2.5047619047619,32.7706311475486
1743285234733,17:53:54.733,-1,1698.9010989011,2.5047619047619,32.7706311475486
1743285234752,17:53:54.752,-1,1672.52747252747,2.5047619047619,32.7706311475486
1743285234772,17:53:54.772,-1,1623.44322344322,2.5032967032967,32.7706311475486
1743285234791,17:53:54.791,-1,1570.69597069597,2.5032967032967,32.7706311475486
1743285234811,17:53:54.811,-1,1526.73992673993,2.5018315018315,32.7706311475486
1743285234830,17:53:54.830,-1,1496.7032967033,2.5018315018315,32.7706311475486
1743285234850,17:53:54.850,-1,1467.39926739927,2.5018315018315,32.7706311475486
1743285234869,17:53:54.869,-1,1446.15384615385,2.5018315018315,32.7706311475486
1743285234889,17:53:54.889,-1,1441.75824175824,2.5003663003663,32.7706311475486
1743285234908,17:53:54.908,-1,1431.50183150183,2.5003663003663,32.7706311475486
1743285234928,17:53:54.928,-1,1413.91941391941,2.4989010989011,32.7706311475486
1743285234947,17:53:54.947,-1,1399.2673992674,2.5003663003663,32.775635246071
1743285234967,17:53:54.967,-1,1380.21978021978,2.4989010989011,32.775635246071
1743285234986,17:53:54.986,-1,1353.84615384615,2.4989010989011,32.775635246071
1743285235006,17:53:55.006,-1,1322.34432234432,2.4974358974359,32.775635246071
1743285235025,17:53:55.025,-1,1298.9010989011,2.4974358974359,32.775635246071
1743285235045,17:53:55.045,-1,1292.30769230769,2.4989010989011,32.775635246071
1743285235064,17:53:55.064,-1,1295.9706959707,2.4974358974359,32.775635246071
1743285235084,17:53:55.084,-1,1286.44688644689,2.4974358974359,32.775635246071
1743285235103,17:53:55.103,-1,1262.27106227106,2.4974358974359,32.775635246071
1743285235123,17:53:55.123,-1,1238.09523809524,2.4974358974359,32.775635246071
1743285235142,17:53:55.142,-1,1239.56043956044,2.4959706959707,32.775635246071
1743285235162,17:53:55.162,-1,1225.64102564103,2.4959706959707,32.775635246071
1743285235181,17:53:55.181,-1,1209.52380952381,2.4959706959707,32.775635246071
1743285235201,17:53:55.201,-1,1218.31501831502,2.4959706959707,32.775635246071
1743285235220,17:53:55.220,-1,1223.44322344322,2.4959706959707,32.775635246071
1743285235240,17:53:55.240,-1,1216.84981684982,2.49450549450549,32.775635246071
1743285235259,17:53:55.259,-1,1224.17582417582,2.49450549450549,32.775635246071
1743285235279,17:53:55.279,-1,1232.23443223443,2.49304029304029,32.775635246071
1743285235298,17:53:55.298,-1,1241.75824175824,2.49304029304029,32.775635246071
1743285235318,17:53:55.318,-1,1282.78388278388,2.49304029304029,32.775635246071
1743285235337,17:53:55.337,-1,1365.56776556777,2.49304029304029,32.775635246071
1743285235357,17:53:55.357,-1,1468.13186813187,2.49157509157509,32.775635246071
1743285235376,17:53:55.376,-1,1577.28937728938,2.49157509157509,32.775635246071
1743285235396,17:53:55.396,-1,1677.65567765568,2.49157509157509,32.775635246071
1743285235415,17:53:55.415,-1,1752.38095238095,2.49157509157509,32.775635246071
1743285235435,17:53:55.435,-1,1789.74358974359,2.49157509157509,32.775635246071
1743285235454,17:53:55.454,-1,1810.25641025641,2.49157509157509,32.775635246071
1743285235474,17:53:55.474,-1,1816.84981684982,2.49010989010989,32.775635246071
1743285235493,17:53:55.493,-1,1814.65201465201,2.49010989010989,32.775635246071
1743285235513,17:53:55.513,-1,1803.663003663,2.49010989010989,32.775635246071
1743285235532,17:53:55.532,-1,1786.08058608059,2.49010989010989,32.775635246071
1743285235552,17:53:55.552,-1,1738.46153846154,2.49010989010989,32.775635246071
1743285235571,17:53:55.571,-1,1665.93406593407,2.48864468864469,32.775635246071
1743285235591,17:53:55.591,-1,1591.20879120879,2.48717948717949,32.775635246071
1743285235610,17:53:55.610,-1,1536.99633699634,2.48717948717949,32.775635246071
1743285235630,17:53:55.630,-1,1503.2967032967,2.48717948717949,32.775635246071
1743285235649,17:53:55.649,-1,1498.1684981685,2.48717948717949,32.775635246071
1743285235669,17:53:55.669,-1,1502.5641025641,2.48571428571429,32.775635246071
1743285235688,17:53:55.688,-1,1498.1684981685,2.48717948717949,32.775635246071
1743285235708,17:53:55.708,-1,1496.7032967033,2.48571428571429,32.775635246071
1743285235727,17:53:55.727,-1,1489.37728937729,2.48424908424908,32.775635246071
1743285235747,17:53:55.747,-1,1465.20146520146,2.48424908424908,32.775635246071
1743285235766,17:53:55.766,-1,1440.29304029304,2.48424908424908,32.775635246071
1743285235786,17:53:55.786,-1,1421.97802197802,2.48424908424908,32.775635246071
1743285235805,17:53:55.805,-1,1391.94139194139,2.48424908424908,32.775635246071
1743285235825,17:53:55.825,-1,1353.11355311355,2.48278388278388,32.775635246071
1743285235844,17:53:55.844,-1,1325.27472527473,2.48131868131868,32.775635246071
1743285235864,17:53:55.864,-1,1306.95970695971,2.48278388278388,32.775635246071
1743285235883,17:53:55.883,-1,1293.04029304029,2.48131868131868,32.775635246071
1743285235903,17:53:55.903,-1,1281.31868131868,2.48131868131868,32.775635246071
1743285235922,17:53:55.922,-1,1273.26007326007,2.48131868131868,32.775635246071
1743285235942,17:53:55.942,-1,1270.32967032967,2.48131868131868,32.775635246071
1743285235961,17:53:55.961,-1,1260.07326007326,2.47985347985348,32.775635246071
1743285235981,17:53:55.981,-1,1251.28205128205,2.47985347985348,32.775635246071
1743285236000,17:53:56.000,-1,1246.88644688645,2.47985347985348,32.775635246071
1743285236020,17:53:56.020,-1,1246.88644688645,2.47838827838828,32.775635246071
1743285236039,17:53:56.039,-1,1285.71428571429,2.47838827838828,32.775635246071
1743285236059,17:53:56.059,-1,1364.10256410256,2.47838827838828,32.775635246071
1743285236078,17:53:56.078,-1,1473.99267399267,2.47838827838828,32.775635246071
1743285236098,17:53:56.098,-1,1608.79120879121,2.47838827838828,32.775635246071
1743285236117,17:53:56.117,-1,1715.01831501831,2.47692307692308,32.775635246071
1743285236137,17:53:56.137,-1,1789.74358974359,2.47692307692308,32.775635246071
1743285236156,17:53:56.156,-1,1824.17582417582,2.47692307692308,32.775635246071
1743285236176,17:53:56.176,-1,1846.15384615385,2.47692307692308,32.775635246071
1743285236195,17:53:56.195,-1,1851.28205128205,2.47692307692308,32.775635246071
1743285236215,17:53:56.215,-1,1839.56043956044,2.47692307692308,32.775635246071
1743285236234,17:53:56.234,-1,1810.25641025641,2.47692307692308,32.775635246071
1743285236254,17:53:56.254,-1,1761.90476190476,2.47545787545788,32.775635246071
1743285236273,17:53:56.273,-1,1695.9706959707,2.47545787545788,32.775635246071
1743285236293,17:53:56.293,-1,1632.23443223443,2.47545787545788,32.775635246071
1743285236312,17:53:56.312,-1,1575.09157509157,2.47399267399267,32.775635246071
1743285236332,17:53:56.332,-1,1526.73992673993,2.47545787545788,32.775635246071
1743285236351,17:53:56.351,-1,1484.24908424908,2.47399267399267,32.775635246071
1743285236371,17:53:56.371,-1,1468.13186813187,2.47399267399267,32.775635246071
1743285236390,17:53:56.390,-1,1463.00366300366,2.47252747252747,32.775635246071
1743285236410,17:53:56.410,-1,1449.81684981685,2.47399267399267,32.775635246071
1743285236429,17:53:56.429,-1,1419.04761904762,2.47252747252747,32.775635246071
1743285236449,17:53:56.449,-1,1388.27838827839,2.47399267399267,32.775635246071
1743285236468,17:53:56.468,-1,1365.56776556777,2.47399267399267,32.775635246071
1743285236488,17:53:56.488,-1,1347.25274725275,2.47399267399267,32.775635246071
1743285236507,17:53:56.507,-1,1334.06593406593,2.47252747252747,32.775635246071
1743285236527,17:53:56.527,-1,1329.67032967033,2.47252747252747,32.775635246071
1743285236546,17:53:56.546,-1,1326.00732600733,2.47252747252747,32.775635246071
1743285236566,17:53:56.566,-1,1320.14652014652,2.47252747252747,32.775635246071
1743285236585,17:53:56.585,-1,1306.22710622711,2.47252747252747,32.775635246071
1743285236605,17:53:56.605,-1,1277.65567765568,2.47106227106227,32.775635246071
1743285236624,17:53:56.624,-1,1268.13186813187,2.47106227106227,32.775635246071
1743285236644,17:53:56.644,-1,1252.01465201465,2.47106227106227,32.775635246071
1743285236663,17:53:56.663,-1,1216.84981684982,2.47106227106227,32.775635246071
1743285236683,17:53:56.683,-1,1189.01098901099,2.47106227106227,32.775635246071
1743285236702,17:53:56.702,-1,1183.88278388278,2.46959706959707,32.775635246071
1743285236722,17:53:56.722,-1,1178.75457875458,2.47106227106227,32.775635246071
1743285236741,17:53:56.741,-1,1180.21978021978,2.46959706959707,32.775635246071
1743285236761,17:53:56.761,-1,1186.08058608059,2.46813186813187,32.775635246071
1743285236780,17:53:56.780,-1,1221.97802197802,2.46813186813187,32.775635246071
1743285236800,17:53:56.800,-1,1304.0293040293,2.46813186813187,32.775635246071
1743285236819,17:53:56.819,-1,1420.51282051282,2.46813186813187,32.775635246071
1743285236839,17:53:56.839,-1,1545.78754578755,2.46813186813187,32.775635246071
1743285236858,17:53:56.858,-1,1647.61904761905,2.46666666666667,32.775635246071
1743285236878,17:53:56.878,-1,1723.80952380952,2.46666666666667,32.775635246071
1743285236897,17:53:56.897,-1,1771.42857142857,2.46666666666667,32.775635246071
1743285236917,17:53:56.917,-1,1803.663003663,2.46666666666667,32.775635246071
1743285236936,17:53:56.936,-1,1825.64102564103,2.46666666666667,32.775635246071
1743285236956,17:53:56.956,-1,1809.52380952381,2.46520146520146,32.775635246071
1743285236975,17:53:56.975,-1,1778.75457875458,2.46666666666667,32.775635246071
1743285236995,17:53:56.995,-1,1745.78754578755,2.46520146520146,32.775635246071
1743285237014,17:53:57.014,-1,1716.48351648352,2.46520146520146,32.775635246071
1743285237034,17:53:57.034,-1,1660.07326007326,2.46520146520146,32.775635246071
1743285237053,17:53:57.053,-1,1595.6043956044,2.46373626373626,32.775635246071
1743285237073,17:53:57.073,-1,1537.72893772894,2.46373626373626,32.775635246071
1743285237092,17:53:57.092,-1,1482.05128205128,2.46373626373626,32.775635246071
1743285237112,17:53:57.112,-1,1448.35164835165,2.46373626373626,32.775635246071
1743285237131,17:53:57.131,-1,1431.50183150183,2.46373626373626,32.775635246071
1743285237151,17:53:57.151,-1,1410.25641025641,2.46373626373626,32.775635246071
1743285237170,17:53:57.170,-1,1384.61538461538,2.46227106227106,32.775635246071
1743285237190,17:53:57.190,-1,1362.63736263736,2.46227106227106,32.775635246071
1743285237209,17:53:57.209,-1,1346.52014652015,2.46080586080586,32.775635246071
1743285237229,17:53:57.229,-1,1323.80952380952,2.46080586080586,32.775635246071
1743285237248,17:53:57.248,-1,1290.10989010989,2.46080586080586,32.775635246071
1743285237268,17:53:57.268,-1,1267.39926739927,2.46080586080586,32.775635246071
1743285237287,17:53:57.287,-1,1252.74725274725,2.45934065934066,32.775635246071
1743285237307,17:53:57.307,-1,1240.29304029304,2.45934065934066,32.775635246071
1743285237326,17:53:57.326,-1,1225.64102564103,2.45934065934066,32.775635246071
1743285237346,17:53:57.346,-1,1218.31501831502,2.45934065934066,32.775635246071
1743285237365,17:53:57.365,-1,1195.6043956044,2.45934065934066,32.775635246071
1743285237385,17:53:57.385,-1,1181.68498168498,2.45934065934066,32.775635246071
1743285237404,17:53:57.404,-1,1182.41758241758,2.45934065934066,32.775635246071
1743285237424,17:53:57.424,-1,1191.20879120879,2.45934065934066,32.775635246071
1743285237443,17:53:57.443,-1,1194.13919413919,2.45787545787546,32.775635246071
1743285237463,17:53:57.463,-1,1184.61538461538,2.45787545787546,32.775635246071
1743285237482,17:53:57.482,-1,1168.49816849817,2.45934065934066,32.775635246071
1743285237502,17:53:57.502,-1,1155.31135531136,2.45934065934066,32.775635246071
1743285237521,17:53:57.521,-1,1153.11355311355,2.45934065934066,32.775635246071
1743285237541,17:53:57.541,-1,1147.98534798535,2.45787545787546,32.775635246071
1743285237560,17:53:57.560,-1,1154.57875457875,2.45787545787546,32.775635246071
1743285237580,17:53:57.580,-1,1214.65201465201,2.45934065934066,32.775635246071
1743285237599,17:53:57.599,-1,1301.0989010989,2.45934065934066,32.775635246071
1743285237619,17:53:57.619,-1,1408.05860805861,2.45787545787546,32.775635246071
1743285237638,17:53:57.638,-1,1511.35531135531,2.45787545787546,32.775635246071
1743285237658,17:53:57.658,-1,1592.67399267399,2.45787545787546,32.775635246071
1743285237677,17:53:57.677,-1,1651.28205128205,2.45641025641026,32.775635246071
1743285237697,17:53:57.697,-1,1690.84249084249,2.45641025641026,32.775635246071
1743285237716,17:53:57.716,-1,1704.0293040293,2.45494505494505,32.775635246071
1743285237736,17:53:57.736,-1,1714.28571428571,2.45494505494505,32.775635246071
1743285237755,17:53:57.755,-1,1704.0293040293,2.45347985347985,32.775635246071
1743285237775,17:53:57.775,-1,1690.84249084249,2.45201465201465,32.775635246071
1743285237794,17:53:57.794,-1,1671.06227106227,2.44761904761905,32.775635246071
1743285237814,17:53:57.814,-1,1626.37362637363,2.44029304029304,32.775635246071
1743285237833,17:53:57.833,-1,1573.62637362637,2.43296703296703,32.775635246071
1743285237853,17:53:57.853,-1,1509.15750915751,2.42710622710623,32.775635246071
1743285237872,17:53:57.872,-1,1456.41025641026,2.42124542124542,32.775635246071
1743285237892,17:53:57.892,-1,1420.51282051282,2.41538461538462,32.775635246071
1743285237911,17:53:57.911,-1,1391.20879120879,2.41098901098901,32.775635246071
1743285237931,17:53:57.931,-1,1363.36996336996,2.40659340659341,32.7806393387727
1743285237950,17:53:57.950,-1,1348.71794871795,2.40512820512821,32.7806393387727
1743285237970,17:53:57.970,-1,1346.52014652015,2.403663003663,32.7806393387727
1743285237989,17:53:57.989,-1,1331.86813186813,2.40512820512821,32.7806393387727
1743285238009,17:53:58.009,-1,1308.42490842491,2.40952380952381,32.7806393387727
1743285238028,17:53:58.028,-1,1273.99267399267,2.41538461538462,32.7806393387727
1743285238048,17:53:58.048,-1,1257.14285714286,2.42124542124542,32.7806393387727
1743285238067,17:53:58.067,-1,1241.75824175824,2.42857142857143,32.7806393387727
1743285238087,17:53:58.087,-1,1226.37362637363,2.43443223443223,32.7806393387727
1743285238106,17:53:58.106,-1,1212.45421245421,2.44029304029304,32.7806393387727
1743285238126,17:53:58.126,-1,1180.21978021978,2.44468864468864,32.7806393387727
1743285238145,17:53:58.145,-1,1157.50915750916,2.44908424908425,32.7806393387727
1743285238165,17:53:58.165,-1,1143.58974358974,2.45201465201465,32.7806393387727
1743285238184,17:53:58.184,-1,1138.46153846154,2.45641025641026,32.7806393387727
1743285238204,17:53:58.204,-1,1148.71794871795,2.45787545787546,32.7806393387727
1743285238223,17:53:58.223,-1,1161.90476190476,2.45934065934066,32.7806393387727
1743285238243,17:53:58.243,-1,1166.30036630037,2.45787545787546,32.7806393387727
1743285238262,17:53:58.262,-1,1166.30036630037,2.45787545787546,32.7806393387727
1743285238282,17:53:58.282,-1,1155.31135531136,2.45787545787546,32.7806393387727
1743285238301,17:53:58.301,-1,1139.92673992674,2.45934065934066,32.7806393387727
1743285238321,17:53:58.321,-1,1127.47252747253,2.45787545787546,32.7806393387727
1743285238340,17:53:58.340,-1,1121.61172161172,2.45787545787546,32.7806393387727
1743285238360,17:53:58.360,-1,1115.01831501831,2.45641025641026,32.7806393387727
1743285238379,17:53:58.379,-1,1142.12454212454,2.45641025641026,32.7806393387727
1743285238399,17:53:58.399,-1,1200,2.45787545787546,32.7806393387727
1743285238418,17:53:58.418,-1,1270.32967032967,2.45641025641026,32.7806393387727
1743285238438,17:53:58.438,-1,1356.04395604396,2.45787545787546,32.7806393387727
1743285238457,17:53:58.457,-1,1430.03663003663,2.45641025641026,32.7806393387727
1743285238477,17:53:58.477,-1,1490.10989010989,2.45641025641026,32.7806393387727
1743285238496,17:53:58.496,-1,1536.26373626374,2.45641025641026,32.7806393387727
1743285238516,17:53:58.516,-1,1564.10256410256,2.45641025641026,32.7806393387727
1743285238535,17:53:58.535,-1,1567.76556776557,2.45787545787546,32.7806393387727
1743285238555,17:53:58.555,-1,1584.61538461538,2.45787545787546,32.7806393387727
1743285238574,17:53:58.574,-1,1594.87179487179,2.45787545787546,32.7806393387727
1743285238594,17:53:58.594,-1,1584.61538461538,2.45787545787546,32.7806393387727
1743285238613,17:53:58.613,-1,1562.63736263736,2.45787545787546,32.7806393387727
1743285238633,17:53:58.633,-1,1519.41391941392,2.45787545787546,32.7806393387727
1743285238652,17:53:58.652,-1,1477.65567765568,2.45787545787546,32.7806393387727
1743285238672,17:53:58.672,-1,1427.10622710623,2.45787545787546,32.7806393387727
1743285238691,17:53:58.691,-1,1400.7326007326,2.45787545787546,32.7806393387727
1743285238711,17:53:58.711,-1,1378.02197802198,2.45641025641026,32.7806393387727
1743285238730,17:53:58.730,-1,1349.45054945055,2.45641025641026,32.7806393387727
1743285238750,17:53:58.750,-1,1316.48351648352,2.45641025641026,32.7806393387727
1743285238769,17:53:58.769,-1,1293.77289377289,2.45641025641026,32.7806393387727
1743285238789,17:53:58.789,-1,1276.19047619048,2.45641025641026,32.7806393387727
1743285238808,17:53:58.808,-1,1269.59706959707,2.45641025641026,32.7806393387727
1743285238828,17:53:58.828,-1,1262.27106227106,2.45494505494505,32.7806393387727
1743285238847,17:53:58.847,-1,1245.42124542125,2.45494505494505,32.7806393387727
1743285238867,17:53:58.867,-1,1232.23443223443,2.45641025641026,32.7806393387727
1743285238886,17:53:58.886,-1,1226.37362637363,2.45494505494505,32.7806393387727
1743285238906,17:53:58.906,-1,1218.31501831502,2.45347985347985,32.7806393387727
1743285238925,17:53:58.925,-1,1205.12820512821,2.45201465201465,32.7706311475486
1743285238945,17:53:58.945,-1,1189.01098901099,2.45054945054945,32.7706311475486
1743285238964,17:53:58.964,-1,1178.75457875458,2.44908424908425,32.7706311475486
1743285238984,17:53:58.984,-1,1186.08058608059,2.44615384615385,32.7706311475486
1743285239003,17:53:59.003,-1,1183.15018315018,2.44615384615385,32.7706311475486
1743285239023,17:53:59.023,-1,1173.62637362637,2.44615384615385,32.7706311475486
1743285239042,17:53:59.042,-1,1171.42857142857,2.44468864468864,32.7706311475486
1743285239062,17:53:59.062,-1,1169.23076923077,2.44761904761905,32.7706311475486
1743285239081,17:53:59.081,-1,1173.62637362637,2.45054945054945,32.7706311475486
1743285239101,17:53:59.101,-1,1200.7326007326,2.45347985347985,32.7706311475486
1743285239120,17:53:59.120,-1,1257.14285714286,2.45641025641026,32.7706311475486
1743285239140,17:53:59.140,-1,1336.99633699634,2.45934065934066,32.7706311475486
1743285239159,17:53:59.159,-1,1411.72161172161,2.46373626373626,32.7706311475486
1743285239179,17:53:59.179,-1,1478.38827838828,2.46227106227106,32.7706311475486
1743285239198,17:53:59.198,-1,1522.34432234432,2.45934065934066,32.7706311475486
1743285239218,17:53:59.218,-1,1549.45054945055,2.45787545787546,32.7706311475486
1743285239237,17:53:59.237,-1,1560.43956043956,2.45641025641026,32.7706311475486
1743285239257,17:53:59.257,-1,1573.62637362637,2.45641025641026,32.7706311475486
1743285239276,17:53:59.276,-1,1580.21978021978,2.45347985347985,32.7706311475486
1743285239296,17:53:59.296,-1,1573.62637362637,2.44908424908425,32.7706311475486
1743285239315,17:53:59.315,-1,1553.84615384615,2.44615384615385,32.7706311475486
1743285239335,17:53:59.335,-1,1528.93772893773,2.44468864468864,32.7706311475486
1743285239354,17:53:59.354,-1,1487.17948717949,2.44322344322344,32.7706311475486
1743285239374,17:53:59.374,-1,1434.43223443223,2.44175824175824,32.7706311475486
1743285239393,17:53:59.393,-1,1381.68498168498,2.44175824175824,32.7706311475486
1743285239413,17:53:59.413,-1,1348.71794871795,2.44029304029304,32.7706311475486
1743285239432,17:53:59.432,-1,1340.65934065934,2.44029304029304,32.7706311475486
1743285239452,17:53:59.452,-1,1347.25274725275,2.44029304029304,32.7706311475486
1743285239471,17:53:59.471,-1,1335.53113553114,2.44175824175824,32.7706311475486
1743285239491,17:53:59.491,-1,1316.48351648352,2.44175824175824,32.7706311475486
1743285239510,17:53:59.510,-1,1295.9706959707,2.44175824175824,32.7706311475486
1743285239530,17:53:59.530,-1,1276.92307692308,2.44175824175824,32.7706311475486
1743285239549,17:53:59.549,-1,1247.61904761905,2.44175824175824,32.7706311475486
1743285239569,17:53:59.569,-1,1219.78021978022,2.44175824175824,32.7706311475486
1743285239588,17:53:59.588,-1,1195.6043956044,2.44175824175824,32.7706311475486
1743285239608,17:53:59.608,-1,1178.75457875458,2.44029304029304,32.7706311475486
1743285239627,17:53:59.627,-1,1162.63736263736,2.44029304029304,32.7706311475486
1743285239647,17:53:59.647,-1,1156.04395604396,2.43589743589744,32.7706311475486
1743285239666,17:53:59.666,-1,1153.84615384615,2.43296703296703,32.7706311475486
1743285239686,17:53:59.686,-1,1158.97435897436,2.42710622710623,32.7706311475486
1743285239705,17:53:59.705,-1,1163.36996336996,2.41978021978022,32.7706311475486
1743285239725,17:53:59.725,-1,1165.56776556777,2.41538461538462,32.7706311475486
1743285239744,17:53:59.744,-1,1148.71794871795,2.41245421245421,32.7706311475486
1743285239764,17:53:59.764,-1,1116.48351648352,2.40952380952381,32.7706311475486
1743285239783,17:53:59.783,-1,1109.15750915751,2.40512820512821,32.7706311475486
1743285239803,17:53:59.803,-1,1128.20512820513,2.403663003663,32.7706311475486
1743285239822,17:53:59.822,-1,1167.76556776557,2.4007326007326,32.7706311475486
1743285239842,17:53:59.842,-1,1230.76923076923,2.3992673992674,32.7706311475486
1743285239861,17:53:59.861,-1,1305.49450549451,2.396336996337,32.7706311475486
1743285239881,17:53:59.881,-1,1385.34798534799,2.39487179487179,32.7706311475486
1743285239900,17:53:59.900,-1,1473.26007326007,2.39340659340659,32.7706311475486
1743285239920,17:53:59.920,-1,1569.96336996337,2.39194139194139,32.7806393387727
1743285239940,17:53:59.939,-1,1633.69963369963,2.39194139194139,32.7806393387727
1743285239959,17:53:59.959,-1,1684.24908424908,2.39194139194139,32.7806393387727
1743285239979,17:53:59.978,-1,1714.28571428571,2.39487179487179,32.7806393387727
1743285239998,17:53:59.998,-1,1708.42490842491,2.3992673992674,32.7806393387727
1743285240018,17:54:00.017,-1,1676.92307692308,2.40512820512821,32.7806393387727
1743285240037,17:54:00.037,-1,1646.88644688645,2.41245421245421,32.7806393387727
1743285240057,17:54:00.057,-1,1613.91941391941,2.41831501831502,32.7806393387727
1743285240076,17:54:00.076,-1,1584.61538461538,2.42417582417582,32.7806393387727
1743285240096,17:54:00.096,-1,1537.72893772894,2.42564102564103,32.7806393387727
1743285240115,17:54:00.115,-1,1468.13186813187,2.42710622710623,32.7806393387727
1743285240135,17:54:00.135,-1,1432.23443223443,2.43003663003663,32.7806393387727
1743285240154,17:54:00.154,-1,1409.52380952381,2.43003663003663,32.7806393387727
1743285240174,17:54:00.174,-1,1386.08058608059,2.43003663003663,32.7806393387727
1743285240193,17:54:00.193,-1,1379.48717948718,2.43150183150183,32.7806393387727
1743285240213,17:54:00.213,-1,1361.90476190476,2.43296703296703,32.7806393387727
1743285240232,17:54:00.232,-1,1353.11355311355,2.43150183150183,32.7806393387727
1743285240252,17:54:00.252,-1,1350.91575091575,2.43150183150183,32.7806393387727
1743285240271,17:54:00.271,-1,1347.98534798535,2.43150183150183,32.7806393387727
1743285240291,17:54:00.291,-1,1333.33333333333,2.43150183150183,32.7806393387727
1743285240310,17:54:00.310,-1,1309.89010989011,2.43150183150183,32.7806393387727
1743285240330,17:54:00.330,-1,1287.17948717949,2.43003663003663,32.7806393387727
1743285240349,17:54:00.349,-1,1257.14285714286,2.42857142857143,32.7806393387727
1743285240369,17:54:00.369,-1,1240.29304029304,2.42564102564103,32.7806393387727
1743285240388,17:54:00.388,-1,1233.69963369963,2.42271062271062,32.7806393387727
1743285240408,17:54:00.408,-1,1237.36263736264,2.42124542124542,32.7806393387727
1743285240427,17:54:00.427,-1,1237.36263736264,2.41978021978022,32.7806393387727
1743285240447,17:54:00.447,-1,1229.30402930403,2.41831501831502,32.7806393387727
1743285240466,17:54:00.466,-1,1223.44322344322,2.41978021978022,32.7806393387727
1743285240486,17:54:00.486,-1,1208.05860805861,2.42271062271062,32.7806393387727
1743285240505,17:54:00.505,-1,1191.94139194139,2.42564102564103,32.7806393387727
1743285240525,17:54:00.525,-1,1187.54578754579,2.42857142857143,32.7806393387727
1743285240544,17:54:00.544,-1,1209.52380952381,2.43150183150183,32.7806393387727
1743285240564,17:54:00.564,-1,1260.80586080586,2.43443223443223,32.7806393387727
1743285240583,17:54:00.583,-1,1339.19413919414,2.43882783882784,32.7806393387727
1743285240603,17:54:00.603,-1,1431.50183150183,2.44322344322344,32.7806393387727
1743285240622,17:54:00.622,-1,1515.75091575092,2.44908424908425,32.7806393387727
1743285240642,17:54:00.642,-1,1591.20879120879,2.45641025641026,32.7806393387727
1743285240661,17:54:00.661,-1,1657.14285714286,2.46227106227106,32.7806393387727
1743285240681,17:54:00.681,-1,1709.89010989011,2.46666666666667,32.7806393387727
1743285240700,17:54:00.700,-1,1746.52014652015,2.47106227106227,32.7806393387727
1743285240720,17:54:00.720,-1,1765.56776556777,2.47252747252747,32.7806393387727
1743285240739,17:54:00.739,-1,1764.83516483516,2.47545787545788,32.7806393387727
1743285240759,17:54:00.759,-1,1747.98534798535,2.47692307692308,32.7806393387727
1743285240778,17:54:00.778,-1,1720.87912087912,2.47838827838828,32.7806393387727
1743285240798,17:54:00.798,-1,1671.79487179487,2.47985347985348,32.7806393387727
1743285240817,17:54:00.817,-1,1617.58241758242,2.48131868131868,32.7806393387727
1743285240837,17:54:00.837,-1,1561.90476190476,2.48424908424908,32.7806393387727
1743285240856,17:54:00.856,-1,1508.42490842491,2.48717948717949,32.7806393387727
1743285240876,17:54:00.876,-1,1463.73626373626,2.49157509157509,32.7806393387727
1743285240895,17:54:00.895,-1,1433.69963369963,2.4959706959707,32.7806393387727
1743285240915,17:54:00.915,-1,1419.04761904762,2.4989010989011,32.7806393387727
1743285240934,17:54:00.934,-1,1404.3956043956,2.5032967032967,32.7806393387727
1743285240954,17:54:00.954,-1,1386.81318681319,2.50622710622711,32.7806393387727
1743285240973,17:54:00.973,-1,1363.36996336996,2.50915750915751,32.7806393387727
1743285240993,17:54:00.993,-1,1346.52014652015,2.51355311355311,32.7806393387727
1743285241012,17:54:01.012,-1,1316.48351648352,2.51648351648352,32.7806393387727
1743285241032,17:54:01.032,-1,1269.59706959707,2.52087912087912,32.7806393387727
1743285241051,17:54:01.051,-1,1238.82783882784,2.52527472527472,32.7806393387727
1743285241071,17:54:01.071,-1,1228.57142857143,2.52967032967033,32.7806393387727
1743285241090,17:54:01.090,-1,1218.31501831502,2.53260073260073,32.7806393387727
1743285241110,17:54:01.110,-1,1204.3956043956,2.53699633699634,32.7806393387727
1743285241129,17:54:01.129,-1,1205.12820512821,2.53992673992674,32.7806393387727
1743285241149,17:54:01.149,-1,1217.58241758242,2.54432234432234,32.7806393387727
1743285241168,17:54:01.168,-1,1220.51282051282,2.54725274725275,32.7806393387727
1743285241188,17:54:01.188,-1,1216.11721611722,2.55018315018315,32.7806393387727
1743285241207,17:54:01.207,-1,1201.4652014652,2.55457875457875,32.7806393387727
1743285241227,17:54:01.227,-1,1197.0695970696,2.55750915750916,32.7806393387727
1743285241246,17:54:01.246,-1,1195.6043956044,2.56190476190476,32.7806393387727
1743285241266,17:54:01.266,-1,1218.31501831502,2.56630036630037,32.7806393387727
1743285241285,17:54:01.285,-1,1278.38827838828,2.57069597069597,32.7806393387727
1743285241305,17:54:01.305,-1,1359.70695970696,2.57509157509157,32.7806393387727
1743285241324,17:54:01.324,-1,1470.32967032967,2.57948717948718,32.7806393387727
1743285241344,17:54:01.344,-1,1575.82417582418,2.58388278388278,32.7806393387727
1743285241363,17:54:01.363,-1,1649.81684981685,2.58827838827839,32.7806393387727
1743285241383,17:54:01.383,-1,1691.57509157509,2.59120879120879,32.7806393387727
1743285241402,17:54:01.402,-1,1693.04029304029,2.5956043956044,32.7806393387727
1743285241422,17:54:01.422,-1,1673.26007326007,2.6,32.7806393387727
1743285241441,17:54:01.441,-1,1646.15384615385,2.60586080586081,32.7806393387727
1743285241461,17:54:01.461,-1,1639.56043956044,2.60879120879121,32.7806393387727
1743285241480,17:54:01.480,-1,1630.03663003663,2.61318681318681,32.7806393387727
1743285241500,17:54:01.500,-1,1597.8021978022,2.61611721611722,32.7806393387727
1743285241519,17:54:01.519,-1,1547.25274725275,2.62051282051282,32.7806393387727
1743285241539,17:54:01.539,-1,1498.1684981685,2.62490842490842,32.7806393387727
1743285241558,17:54:01.558,-1,1454.94505494505,2.62930402930403,32.7806393387727
1743285241578,17:54:01.578,-1,1437.36263736264,2.63369963369963,32.7806393387727
1743285241597,17:54:01.597,-1,1432.23443223443,2.63663003663004,32.7806393387727
1743285241617,17:54:01.617,-1,1414.65201465201,2.63956043956044,32.7806393387727
1743285241636,17:54:01.636,-1,1396.336996337,2.64249084249084,32.7806393387727
1743285241656,17:54:01.656,-1,1374.35897435897,2.64542124542125,32.7806393387727
1743285241675,17:54:01.675,-1,1368.49816849817,2.64835164835165,32.7806393387727
1743285241695,17:54:01.695,-1,1359.70695970696,2.65128205128205,32.7806393387727
1743285241714,17:54:01.714,-1,1347.25274725275,2.65274725274725,32.7806393387727
1743285241734,17:54:01.734,-1,1334.79853479853,2.65714285714286,32.7806393387727
1743285241753,17:54:01.753,-1,1326.73992673993,2.66007326007326,32.7806393387727
1743285241773,17:54:01.773,-1,1317.94871794872,2.66153846153846,32.7806393387727
1743285241792,17:54:01.792,-1,1290.84249084249,2.66593406593407,32.7806393387727
1743285241812,17:54:01.812,-1,1267.39926739927,2.66739926739927,32.7806393387727
1743285241831,17:54:01.831,-1,1248.35164835165,2.67032967032967,32.7806393387727
1743285241851,17:54:01.851,-1,1227.10622710623,2.67326007326007,32.7806393387727
1743285241870,17:54:01.870,-1,1206.59340659341,2.67765567765568,32.7806393387727
1743285241890,17:54:01.890,-1,1187.54578754579,2.68058608058608,32.7806393387727
1743285241909,17:54:01.909,-1,1181.68498168498,2.68205128205128,32.775635246071
1743285241929,17:54:01.929,-1,1185.34798534799,2.68351648351648,32.775635246071
1743285241948,17:54:01.948,-1,1217.58241758242,2.68498168498168,32.775635246071
1743285241968,17:54:01.968,-1,1304.0293040293,2.68644688644689,32.775635246071
1743285241987,17:54:01.987,-1,1411.72161172161,2.68937728937729,32.775635246071
1743285242007,17:54:02.007,-1,1506.95970695971,2.69084249084249,32.775635246071
1743285242026,17:54:02.026,-1,1586.08058608059,2.69377289377289,32.775635246071
1743285242046,17:54:02.046,-1,1632.23443223443,2.69523809523809,32.775635246071
1743285242065,17:54:02.065,-1,1655.67765567766,2.6967032967033,32.775635246071
1743285242085,17:54:02.085,-1,1663.00366300366,2.6981684981685,32.775635246071
1743285242104,17:54:02.104,-1,1652.74725274725,2.6996336996337,32.775635246071
1743285242124,17:54:02.124,-1,1635.16483516484,2.7010989010989,32.775635246071
1743285242143,17:54:02.143,-1,1612.45421245421,2.7025641025641,32.775635246071
1743285242163,17:54:02.163,-1,1572.89377289377,2.7040293040293,32.775635246071
1743285242182,17:54:02.182,-1,1517.21611721612,2.70549450549451,32.775635246071
1743285242202,17:54:02.202,-1,1460.07326007326,2.70695970695971,32.775635246071
1743285242221,17:54:02.221,-1,1416.11721611722,2.70842490842491,32.775635246071
1743285242241,17:54:02.241,-1,1374.35897435897,2.70989010989011,32.775635246071
1743285242260,17:54:02.260,-1,1336.99633699634,2.71135531135531,32.775635246071
1743285242280,17:54:02.280,-1,1309.89010989011,2.71282051282051,32.775635246071
1743285242299,17:54:02.299,-1,1297.4358974359,2.71428571428571,32.775635246071
1743285242319,17:54:02.319,-1,1299.6336996337,2.71428571428571,32.775635246071
1743285242338,17:54:02.338,-1,1300.3663003663,2.71575091575092,32.775635246071
1743285242358,17:54:02.358,-1,1300.3663003663,2.71721611721612,32.775635246071
1743285242377,17:54:02.377,-1,1291.57509157509,2.71721611721612,32.775635246071
1743285242397,17:54:02.397,-1,1276.92307692308,2.71868131868132,32.775635246071
1743285242416,17:54:02.416,-1,1265.20146520147,2.71868131868132,32.775635246071
1743285242436,17:54:02.436,-1,1248.35164835165,2.71868131868132,32.775635246071
1743285242455,17:54:02.455,-1,1230.03663003663,2.72014652014652,32.775635246071
1743285242475,17:54:02.475,-1,1208.05860805861,2.72014652014652,32.775635246071
1743285242494,17:54:02.494,-1,1190.47619047619,2.72161172161172,32.775635246071
1743285242514,17:54:02.514,-1,1182.41758241758,2.72307692307692,32.775635246071
1743285242533,17:54:02.533,-1,1185.34798534799,2.72454212454212,32.775635246071
1743285242553,17:54:02.553,-1,1183.15018315018,2.72600732600733,32.775635246071
1743285242572,17:54:02.572,-1,1175.82417582418,2.72600732600733,32.775635246071
1743285242592,17:54:02.592,-1,1170.69597069597,2.72893772893773,32.775635246071
1743285242611,17:54:02.611,-1,1195.6043956044,2.73040293040293,32.775635246071
1743285242631,17:54:02.631,-1,1273.26007326007,2.73186813186813,32.775635246071
1743285242650,17:54:02.650,-1,1372.89377289377,2.73186813186813,32.775635246071
1743285242670,17:54:02.670,-1,1467.39926739927,2.73333333333333,32.775635246071
1743285242689,17:54:02.689,-1,1545.05494505494,2.73479853479853,32.775635246071
1743285242709,17:54:02.709,-1,1609.52380952381,2.73479853479853,32.775635246071
1743285242728,17:54:02.728,-1,1642.49084249084,2.73626373626374,32.775635246071
1743285242748,17:54:02.748,-1,1646.15384615385,2.73772893772894,32.775635246071
1743285242767,17:54:02.767,-1,1637.36263736264,2.73919413919414,32.775635246071
1743285242787,17:54:02.787,-1,1619.78021978022,2.74065934065934,32.775635246071
1743285242806,17:54:02.806,-1,1588.27838827839,2.74212454212454,32.775635246071
1743285242826,17:54:02.826,-1,1565.56776556777,2.74358974358974,32.775635246071
1743285242845,17:54:02.845,-1,1536.99633699634,2.74505494505494,32.775635246071
1743285242865,17:54:02.865,-1,1484.24908424908,2.74798534798535,32.775635246071
1743285242884,17:54:02.884,-1,1429.30402930403,2.74798534798535,32.775635246071
1743285242904,17:54:02.904,-1,1397.8021978022,2.75238095238095,32.7806393387727
1743285242923,17:54:02.923,-1,1367.03296703297,2.75384615384615,32.7806393387727
1743285242943,17:54:02.943,-1,1346.52014652015,2.75677655677656,32.7806393387727
1743285242962,17:54:02.962,-1,1326.00732600733,2.75824175824176,32.7806393387727
1743285242982,17:54:02.982,-1,1306.95970695971,2.76117216117216,32.7806393387727
1743285243001,17:54:03.001,-1,1287.17948717949,2.76410256410256,32.7806393387727
1743285243021,17:54:03.021,-1,1272.52747252747,2.76556776556777,32.7806393387727
1743285243040,17:54:03.040,-1,1258.60805860806,2.76849816849817,32.7806393387727
1743285243060,17:54:03.060,-1,1254.21245421245,2.77289377289377,32.7806393387727
1743285243079,17:54:03.079,-1,1258.60805860806,2.77582417582418,32.7806393387727
1743285243099,17:54:03.099,-1,1245.42124542125,2.77875457875458,32.7806393387727
1743285243118,17:54:03.118,-1,1241.02564102564,2.78315018315018,32.7806393387727
1743285243138,17:54:03.138,-1,1218.31501831502,2.78608058608059,32.7806393387727
1743285243157,17:54:03.157,-1,1186.08058608059,2.78901098901099,32.7806393387727
1743285243177,17:54:03.177,-1,1166.30036630037,2.79340659340659,32.7806393387727
1743285243196,17:54:03.196,-1,1175.09157509158,2.796336996337,32.7806393387727
1743285243216,17:54:03.216,-1,1169.23076923077,2.8021978021978,32.7806393387727
1743285243235,17:54:03.235,-1,1161.17216117216,2.80512820512821,32.7806393387727
1743285243255,17:54:03.255,-1,1167.03296703297,2.81098901098901,32.7806393387727
1743285243274,17:54:03.274,-1,1187.54578754579,2.81391941391941,32.7806393387727
1743285243294,17:54:03.294,-1,1235.16483516484,2.81684981684982,32.7806393387727
1743285243313,17:54:03.313,-1,1302.5641025641,2.81978021978022,32.7806393387727
1743285243333,17:54:03.333,-1,1386.81318681319,2.82271062271062,32.7806393387727
1743285243352,17:54:03.352,-1,1468.13186813187,2.82710622710623,32.7806393387727
1743285243372,17:54:03.372,-1,1523.07692307692,2.83296703296703,32.7806393387727
1743285243391,17:54:03.391,-1,1581.68498168498,2.83589743589744,32.7806393387727
1743285243411,17:54:03.411,-1,1619.78021978022,2.84175824175824,32.7806393387727
1743285243430,17:54:03.430,-1,1633.69963369963,2.84615384615385,32.7806393387727
1743285243450,17:54:03.450,-1,1626.37362637363,2.85054945054945,32.7806393387727
1743285243469,17:54:03.469,-1,1604.3956043956,2.85494505494506,32.7806393387727
1743285243489,17:54:03.489,-1,1570.69597069597,2.85934065934066,32.7806393387727
1743285243508,17:54:03.508,-1,1554.57875457875,2.86227106227106,32.7806393387727
1743285243528,17:54:03.528,-1,1531.86813186813,2.86666666666667,32.7806393387727
1743285243547,17:54:03.547,-1,1491.57509157509,2.87106227106227,32.7806393387727
1743285243567,17:54:03.567,-1,1432.23443223443,2.87545787545788,32.7806393387727
1743285243586,17:54:03.586,-1,1404.3956043956,2.87985347985348,32.7806393387727
1743285243606,17:54:03.606,-1,1375.82417582418,2.88424908424908,32.7806393387727
1743285243625,17:54:03.625,-1,1340.65934065934,2.88717948717949,32.7806393387727
1743285243645,17:54:03.645,-1,1326.73992673993,2.89157509157509,32.7806393387727
1743285243664,17:54:03.664,-1,1317.94871794872,2.8974358974359,32.7806393387727
1743285243684,17:54:03.684,-1,1302.5641025641,2.9032967032967,32.7806393387727
1743285243703,17:54:03.703,-1,1284.24908424908,2.90769230769231,32.7806393387727
1743285243723,17:54:03.723,-1,1255.67765567766,2.91355311355311,32.7806393387727
1743285243742,17:54:03.742,-1,1241.02564102564,2.91648351648352,32.7806393387727
1743285243762,17:54:03.762,-1,1244.68864468864,2.92087912087912,32.7806393387727
1743285243781,17:54:03.781,-1,1237.36263736264,2.92380952380952,32.7806393387727
1743285243801,17:54:03.801,-1,1228.57142857143,2.92527472527473,32.7806393387727
1743285243820,17:54:03.820,-1,1226.37362637363,2.92820512820513,32.7806393387727
1743285243840,17:54:03.840,-1,1221.97802197802,2.93113553113553,32.7806393387727
1743285243859,17:54:03.859,-1,1213.18681318681,2.93260073260073,32.7806393387727
1743285243879,17:54:03.879,-1,1201.4652014652,2.93699633699634,32.7806393387727
1743285243898,17:54:03.898,-1,1190.47619047619,2.93992673992674,32.7806393387727
1743285243918,17:54:03.918,-1,1169.23076923077,2.94139194139194,32.7806393387727
1743285243937,17:54:03.937,-1,1147.98534798535,2.94139194139194,32.7806393387727
1743285243957,17:54:03.957,-1,1150.91575091575,2.94285714285714,32.7806393387727
1743285243976,17:54:03.976,-1,1168.49816849817,2.94432234432234,32.7806393387727
1743285243996,17:54:03.996,-1,1216.11721611722,2.94578754578755,32.7806393387727
1743285244015,17:54:04.015,-1,1290.10989010989,2.94871794871795,32.7806393387727
1743285244035,17:54:04.035,-1,1383.15018315018,2.95018315018315,32.7806393387727
1743285244054,17:54:04.054,-1,1484.98168498168,2.95311355311355,32.7806393387727
1743285244074,17:54:04.074,-1,1554.57875457875,2.95457875457875,32.7806393387727
1743285244093,17:54:04.093,-1,1582.41758241758,2.95897435897436,32.7806393387727
1743285244113,17:54:04.113,-1,1608.79120879121,2.96190476190476,32.7806393387727
1743285244132,17:54:04.132,-1,1628.57142857143,2.96776556776557,32.7806393387727
1743285244152,17:54:04.152,-1,1644.68864468864,2.97216117216117,32.7806393387727
1743285244171,17:54:04.171,-1,1649.08424908425,2.97216117216117,32.7806393387727
1743285244191,17:54:04.191,-1,1632.23443223443,2.97216117216117,32.7806393387727
1743285244210,17:54:04.210,-1,1602.9304029304,2.97362637362637,32.7806393387727
1743285244230,17:54:04.230,-1,1566.30036630037,2.97362637362637,32.7806393387727
1743285244249,17:54:04.249,-1,1512.08791208791,2.97509157509157,32.7806393387727
1743285244269,17:54:04.269,-1,1468.13186813187,2.97802197802198,32.7806393387727
1743285244288,17:54:04.288,-1,1439.56043956044,2.97948717948718,32.7806393387727
1743285244308,17:54:04.308,-1,1416.11721611722,2.97948717948718,32.7806393387727
1743285244327,17:54:04.327,-1,1397.0695970696,2.98241758241758,32.7806393387727
1743285244347,17:54:04.347,-1,1363.36996336996,2.98095238095238,32.7806393387727
1743285244366,17:54:04.366,-1,1338.46153846154,2.98241758241758,32.7806393387727
