RawTimestamp,LocalTime,HR_Direct,HR_Buffered,PPG,GSR,Temperature
1743442282795,13:31:22.795,-1,-1,1595.6043956044,1.46446886446886,26.4608428180218
1743442282814,13:31:22.814,-1,-1,1618.31501831502,1.46446886446886,26.4608428180218
1743442282834,13:31:22.834,-1,-1,1602.1978021978,1.65837479270314,26.4608428180218
1743442282853,13:31:22.853,-1,-1,1567.76556776557,1.65837479270314,26.4608428180218
1743442282873,13:31:22.873,-1,-1,1538.46153846154,1.65837479270314,26.4608428180218
1743442282892,13:31:22.892,-1,-1,1498.9010989011,1.65837479270314,26.4608428180218
1743442282912,13:31:22.912,-1,-1,1453.47985347985,1.65837479270314,26.4608428180218
1743442282931,13:31:22.931,-1,-1,1410.98901098901,1.57496394430192,26.4608428180218
1743442282951,13:31:22.951,-1,-1,1383.15018315018,1.57496394430192,26.4608428180218
1743442282970,13:31:22.970,-1,-1,1380.95238095238,1.57496394430192,26.4608428180218
1743442282990,13:31:22.990,-1,-1,1383.88278388278,1.57496394430192,26.4608428180218
1743442283009,13:31:23.009,-1,-1,1392.67399267399,1.57496394430192,26.4608428180218
1743442283029,13:31:23.029,-1,-1,1399.2673992674,1.54652014652015,26.4608428180218
1743442283048,13:31:23.048,-1,-1,1404.3956043956,1.56556776556777,26.4608428180218
1743442283068,13:31:23.068,-1,-1,1396.336996337,1.603663003663,26.4608428180218
1743442283087,13:31:23.087,-1,-1,1369.96336996337,1.60952380952381,26.4608428180218
1743442283107,13:31:23.107,-1,-1,1357.50915750916,1.59194139194139,26.4608428180218
1743442283126,13:31:23.126,-1,-1,1356.04395604396,1.55091575091575,26.4608428180218
1743442283146,13:31:23.146,-1,-1,1345.78754578755,1.54065934065934,26.4608428180218
1743442283165,13:31:23.165,-1,-1,1334.06593406593,1.55824175824176,26.4608428180218
1743442283185,13:31:23.185,-1,-1,1325.27472527473,1.5978021978022,26.4608428180218
1743442283204,13:31:23.204,-1,-1,1312.08791208791,1.59487179487179,26.4608428180218
1743442283224,13:31:23.224,-1,-1,1288.64468864469,1.57435897435897,26.4608428180218
1743442283243,13:31:23.243,-1,-1,1267.39926739927,1.53186813186813,26.4608428180218
1743442283263,13:31:23.263,-1,-1,1248.35164835165,1.52747252747253,26.4608428180218
1743442283282,13:31:23.282,-1,-1,1242.49084249084,1.54652014652015,26.4608428180218
1743442283302,13:31:23.302,-1,-1,1252.74725274725,1.58461538461538,26.4608428180218
1743442283321,13:31:23.321,-1,-1,1254.21245421245,1.57582417582418,26.4608428180218
1743442283341,13:31:23.341,-1,-1,1254.21245421245,1.57582417582418,26.4608428180218
1743442283360,13:31:23.360,-1,-1,1292.30769230769,1.51575091575092,26.4608428180218
1743442283380,13:31:23.380,-1,-1,1354.57875457875,1.51868131868132,26.4608428180218
1743442283399,13:31:23.399,-1,-1,1435.16483516484,1.54065934065934,26.4608428180218
1743442283419,13:31:23.419,-1,-1,1502.5641025641,1.57728937728938,26.4608428180218
1743442283438,13:31:23.438,-1,-1,1530.40293040293,1.56556776556777,26.4608428180218
1743442283458,13:31:23.458,-1,-1,1544.32234432234,1.54652014652015,26.4608428180218
1743442283477,13:31:23.477,-1,-1,1550.91575091575,1.50989010989011,26.4608428180218
1743442283497,13:31:23.497,-1,-1,1549.45054945055,1.51721611721612,26.4608428180218
1743442283516,13:31:23.516,-1,-1,1532.60073260073,1.54065934065934,26.4608428180218
1743442283536,13:31:23.536,-1,-1,1503.2967032967,1.57289377289377,26.4608428180218
1743442283555,13:31:23.555,-1,-1,1465.93406593407,1.55970695970696,26.4608428180218
1743442283575,13:31:23.575,-1,-1,1434.43223443223,1.53772893772894,26.4608428180218
1743442283594,13:31:23.594,-1,-1,1406.59340659341,1.5040293040293,26.4608428180218
1743442283614,13:31:23.614,-1,-1,1381.68498168498,1.51575091575092,26.4608428180218
1743442283633,13:31:23.633,-1,-1,1364.83516483516,1.54212454212454,26.4608428180218
1743442283653,13:31:23.653,-1,-1,1373.62637362637,1.56849816849817,26.4608428180218
1743442283672,13:31:23.672,-1,-1,1378.02197802198,1.55384615384615,26.4608428180218
1743442283692,13:31:23.692,-1,-1,1378.02197802198,1.52893772893773,26.4608428180218
1743442283711,13:31:23.711,-1,-1,1368.49816849817,1.5010989010989,35.4569943527458
1743442283731,13:31:23.731,-1,-1,1363.36996336996,1.51721611721612,35.4569943527458
1743442283750,13:31:23.750,-1,-1,1351.64835164835,1.54652014652015,35.4569943527458
1743442283770,13:31:23.770,-1,-1,1334.79853479853,1.56556776556777,35.4569943527458
1743442283789,13:31:23.789,-1,-1,1331.86813186813,1.54945054945055,35.4569943527458
1743442283809,13:31:23.809,-1,-1,1319.41391941392,1.52014652014652,35.4569943527458
1743442283828,13:31:23.828,-1,-1,1312.82051282051,1.4996336996337,35.4569943527458
1743442283848,13:31:23.848,-1,-1,1305.49450549451,1.51575091575092,35.4569943527458
1743442283867,13:31:23.867,-1,-1,1304.7619047619,1.54945054945055,35.4569943527458
1743442283887,13:31:23.887,-1,-1,1289.37728937729,1.55824175824176,35.4569943527458
1743442283906,13:31:23.906,-1,-1,1268.86446886447,1.54065934065934,35.4569943527458
1743442283926,13:31:23.926,-1,-1,1263.00366300366,1.50549450549451,35.4569943527458
1743442283945,13:31:23.945,-1,-1,1264.46886446886,1.49230769230769,35.4569943527458
1743442283965,13:31:23.965,-1,-1,1262.27106227106,1.50549450549451,35.4569943527458
1743442283984,13:31:23.984,-1,-1,1298.1684981685,1.53772893772894,35.4569943527458
1743442284004,13:31:24.004,-1,-1,1345.78754578755,1.53333333333333,35.4569943527458
1743442284023,13:31:24.023,-1,-1,1409.52380952381,1.50842490842491,35.4569943527458
1743442284043,13:31:24.043,-1,-1,1466.66666666667,1.46153846153846,35.4569943527458
1743442284062,13:31:24.062,-1,-1,1495.9706959707,1.44102564102564,35.4569943527458
1743442284082,13:31:24.082,-1,-1,1516.48351648352,1.44249084249084,35.4569943527458
1743442284101,13:31:24.101,-1,-1,1538.46153846154,1.46007326007326,35.4569943527458
1743442284121,13:31:24.121,-1,-1,1546.52014652015,1.43516483516484,35.4569943527458
1743442284140,13:31:24.140,-1,-1,1531.86813186813,1.40586080586081,35.4569943527458
1743442284160,13:31:24.160,-1,-1,1517.94871794872,1.36043956043956,35.4569943527458
1743442284179,13:31:24.179,-1,-1,1513.55311355311,1.36043956043956,35.4569943527458
1743442284199,13:31:24.199,-1,-1,1489.37728937729,1.36043956043956,35.4569943527458
1743442284218,13:31:24.218,-1,-1,1457.14285714286,1.36043956043956,35.4569943527458
1743442284238,13:31:24.238,-1,-1,1432.23443223443,1.36043956043956,35.4569943527458
1743442284257,13:31:24.257,-1,-1,1424.90842490842,1.33932733932734,35.4569943527458
1743442284277,13:31:24.277,-1,-1,1417.58241758242,1.30602730602731,35.4569943527458
1743442284296,13:31:24.296,-1,-1,1401.4652014652,1.28915528915529,35.4569943527458
1743442284316,13:31:24.316,-1,-1,1384.61538461538,1.28915528915529,35.4569943527458
1743442284335,13:31:24.335,-1,-1,1375.82417582418,1.3029193029193,35.4569943527458
1743442284355,13:31:24.355,-1,-1,1388.27838827839,1.2984792984793,35.4569943527458
1743442284374,13:31:24.374,-1,-1,1391.20879120879,1.28071928071928,35.4569943527458
1743442284394,13:31:24.394,-1,-1,1386.81318681319,1.24875124875125,35.4569943527458
1743442284413,13:31:24.413,-1,-1,1367.03296703297,1.23631923631924,35.4569943527458
1743442284433,13:31:24.433,-1,-1,1353.11355311355,1.24031524031524,35.4569943527458
1743442284452,13:31:24.452,-1,-1,1345.05494505494,1.25585525585526,35.4569943527458
1743442284472,13:31:24.472,-1,-1,1337.72893772894,1.24608724608725,35.4569943527458
1743442284491,13:31:24.491,-1,-1,1327.47252747253,1.22832722832723,35.4569943527458
1743442284511,13:31:24.511,-1,-1,1324.54212454212,1.2003552003552,35.4569943527458
1743442284530,13:31:24.530,-1,-1,1323.07692307692,1.19058719058719,35.4569943527458
1743442284550,13:31:24.550,-1,-1,1309.15750915751,1.1972471972472,35.4569943527458
1743442284569,13:31:24.569,-1,-1,1282.05128205128,1.21145521145521,35.4569943527458
1743442284589,13:31:24.589,-1,-1,1270.32967032967,1.20701520701521,35.4569943527458
1743442284608,13:31:24.608,-1,-1,1265.93406593407,1.19014319014319,35.4569943527458
1743442284628,13:31:24.628,-1,-1,1273.26007326007,1.16661116661117,35.4569943527458
1743442284647,13:31:24.647,-1,-1,1285.71428571429,1.16172716172716,35.4569943527458
1743442284667,13:31:24.667,-1,-1,1323.80952380952,1.17327117327117,35.4569943527458
1743442284686,13:31:24.686,-1,-1,1378.02197802198,1.18525918525919,35.4569943527458
1743442284706,13:31:24.706,-1,-1,1436.63003663004,1.17771117771118,35.4769982089056
1743442284725,13:31:24.725,-1,-1,1489.37728937729,1.15995115995116,35.4769982089056
1743442284745,13:31:24.745,-1,-1,1527.47252747253,1.14174714174714,35.4769982089056
1743442284764,13:31:24.764,-1,-1,1547.98534798535,1.14174714174714,35.4769982089056
1743442284784,13:31:24.784,-1,-1,1552.38095238095,1.15506715506716,35.4769982089056
1743442284803,13:31:24.803,-1,-1,1544.32234432234,1.16483516483516,35.4769982089056
1743442284823,13:31:24.823,-1,-1,1536.26373626374,1.16083916083916,35.4769982089056
1743442284842,13:31:24.842,-1,-1,1542.12454212454,1.14485514485514,35.4769982089056
1743442284862,13:31:24.862,-1,-1,1529.67032967033,1.13952713952714,35.4769982089056
1743442284881,13:31:24.881,-1,-1,1493.04029304029,1.14352314352314,35.4769982089056
1743442284901,13:31:24.901,-1,-1,1444.68864468864,1.16083916083916,35.4769982089056
1743442284920,13:31:24.920,-1,-1,1419.04761904762,1.16927516927517,35.4769982089056
1743442284940,13:31:24.940,-1,-1,1432.23443223443,1.16883116883117,35.4769982089056
1743442284959,13:31:24.959,-1,-1,1445.42124542125,1.15062715062715,35.4769982089056
1743442284979,13:31:24.979,-1,-1,1440.29304029304,1.13730713730714,35.4769982089056
1743442284998,13:31:24.998,-1,-1,1419.78021978022,1.14751914751915,35.4769982089056
1743442285018,13:31:25.018,-1,-1,1409.52380952381,1.18437118437118,35.4769982089056
1743442285037,13:31:25.037,-1,-1,1398.5347985348,1.19413919413919,35.4769982089056
1743442285057,13:31:25.057,-1,-1,1380.95238095238,1.19236319236319,35.4769982089056
1743442285076,13:31:25.076,-1,-1,1365.56776556777,1.17060717060717,35.4769982089056
1743442285096,13:31:25.096,-1,-1,1353.84615384615,1.16128316128316,35.4769982089056
1743442285115,13:31:25.115,-1,-1,1343.58974358974,1.16128316128316,35.4769982089056
1743442285135,13:31:25.135,-1,-1,1335.53113553114,1.17105117105117,35.4769982089056
1743442285154,13:31:25.154,-1,-1,1331.13553113553,1.16394716394716,35.4769982089056
1743442285174,13:31:25.174,-1,-1,1319.41391941392,1.15284715284715,35.4769982089056
1743442285193,13:31:25.193,-1,-1,1305.49450549451,1.12309912309912,35.4769982089056
1743442285213,13:31:25.213,-1,-1,1293.77289377289,1.11954711954712,35.4769982089056
1743442285232,13:31:25.232,-1,-1,1290.10989010989,1.13730713730714,35.4769982089056
1743442285252,13:31:25.252,-1,-1,1287.17948717949,1.15906315906316,35.4769982089056
1743442285271,13:31:25.271,-1,-1,1282.05128205128,1.15817515817516,35.4769982089056
1743442285291,13:31:25.291,-1,-1,1283.51648351648,1.14796314796315,35.4769982089056
1743442285310,13:31:25.310,-1,-1,1282.78388278388,1.12265512265512,35.4769982089056
1743442285330,13:31:25.330,-1,-1,1275.45787545788,1.11865911865912,35.4769982089056
1743442285349,13:31:25.349,-1,-1,1275.45787545788,1.11865911865912,35.4769982089056
1743442285369,13:31:25.369,-1,-1,1324.54212454212,1.15506715506716,35.4769982089056
1743442285388,13:31:25.388,-1,-1,1365.56776556777,1.16217116217116,35.4769982089056
1743442285408,13:31:25.408,-1,-1,1403.663003663,1.15018315018315,35.4769982089056
1743442285427,13:31:25.427,-1,-1,1447.61904761905,1.12931512931513,35.4769982089056
1743442285447,13:31:25.447,-1,-1,1480.58608058608,1.11910311910312,35.4769982089056
1743442285466,13:31:25.466,-1,-1,1513.55311355311,1.10667110667111,35.4769982089056
1743442285486,13:31:25.486,-1,-1,1534.79853479853,1.11333111333111,35.4769982089056
1743442285505,13:31:25.505,-1,-1,1534.79853479853,1.10933510933511,35.4769982089056
1743442285525,13:31:25.525,-1,-1,1536.26373626374,1.09468309468309,35.4769982089056
1743442285544,13:31:25.544,-1,-1,1526.00732600733,1.07337107337107,35.4769982089056
1743442285564,13:31:25.564,-1,-1,1512.08791208791,1.07470307470307,35.4769982089056
1743442285583,13:31:25.583,-1,-1,1501.0989010989,1.08846708846709,35.4769982089056
1743442285603,13:31:25.603,-1,-1,1481.31868131868,1.1040071040071,35.4769982089056
1743442285622,13:31:25.622,-1,-1,1463.00366300366,1.10622710622711,35.4769982089056
1743442285642,13:31:25.642,-1,-1,1439.56043956044,1.0973470973471,35.4769982089056
1743442285661,13:31:25.661,-1,-1,1421.97802197802,1.08891108891109,35.4769982089056
1743442285681,13:31:25.681,-1,-1,1418.31501831502,1.1008991008991,35.4769982089056
1743442285700,13:31:25.700,-1,-1,1408.05860805861,1.12798312798313,35.4719972535968
1743442285720,13:31:25.720,-1,-1,1393.40659340659,1.14840714840715,35.4719972535968
1743442285739,13:31:25.739,-1,-1,1385.34798534799,1.15107115107115,35.4719972535968
1743442285759,13:31:25.759,-1,-1,1378.02197802198,1.13819513819514,35.4719972535968
1743442285778,13:31:25.778,-1,-1,1379.48717948718,1.13020313020313,35.4719972535968
1743442285798,13:31:25.798,-1,-1,1365.56776556777,1.13952713952714,35.4719972535968
1743442285817,13:31:25.817,-1,-1,1346.52014652015,1.16439116439116,35.4719972535968
1743442285837,13:31:25.837,-1,-1,1331.13553113553,1.17593517593518,35.4719972535968
1743442285856,13:31:25.856,-1,-1,1328.20512820513,1.17327117327117,35.4719972535968
1743442285876,13:31:25.876,-1,-1,1326.00732600733,1.15595515595516,35.4719972535968
1743442285895,13:31:25.895,-1,-1,1316.48351648352,1.14796314796315,35.4719972535968
1743442285915,13:31:25.915,-1,-1,1296.7032967033,1.15817515817516,35.4719972535968
1743442285934,13:31:25.934,-1,-1,1284.24908424908,1.18348318348318,35.4719972535968
1743442285954,13:31:25.954,-1,-1,1276.19047619048,1.19147519147519,35.4719972535968
1743442285973,13:31:25.973,-1,-1,1278.38827838828,1.18747918747919,35.4719972535968
1743442285993,13:31:25.993,-1,-1,1272.52747252747,1.16883116883117,35.4719972535968
1743442286012,13:31:26.012,-1,-1,1271.79487179487,1.16971916971917,35.4719972535968
1743442286032,13:31:26.032,-1,-1,1273.26007326007,1.18836718836719,35.4719972535968
1743442286051,13:31:26.051,-1,-1,1271.06227106227,1.22299922299922,35.4719972535968
1743442286071,13:31:26.071,-1,-1,1260.07326007326,1.24564324564325,35.4719972535968
1743442286090,13:31:26.090,-1,-1,1257.87545787546,1.26473526473526,35.4719972535968
1743442286110,13:31:26.110,-1,-1,1268.13186813187,1.27272727272727,35.4719972535968
1743442286129,13:31:26.129,-1,-1,1290.84249084249,1.3046953046953,35.4719972535968
1743442286149,13:31:26.149,-1,-1,1342.12454212454,1.35841935841936,35.4719972535968
1743442286168,13:31:26.168,-1,-1,1400.7326007326,1.41658341658342,35.4719972535968
1743442286188,13:31:26.188,-1,-1,1461.53846153846,1.44810744810745,35.4719972535968
1743442286207,13:31:26.207,-1,-1,1508.42490842491,1.44810744810745,35.4719972535968
1743442286227,13:31:26.227,-1,-1,1537.72893772894,1.44810744810745,35.4719972535968
1743442286246,13:31:26.246,-1,-1,1532.60073260073,1.44810744810745,35.4719972535968
1743442286266,13:31:26.266,-1,-1,1529.67032967033,1.44810744810745,35.4719972535968
1743442286285,13:31:26.285,-1,-1,1518.68131868132,1.62857142857143,35.4719972535968
1743442286305,13:31:26.305,-1,-1,1506.95970695971,1.64761904761905,35.4719972535968
1743442286324,13:31:26.324,-1,-1,1502.5641025641,1.71062271062271,35.4719972535968
1743442286344,13:31:26.344,-1,-1,1497.4358974359,1.73406593406593,35.4719972535968
1743442286363,13:31:26.363,-1,-1,1468.86446886447,1.77509157509158,35.4719972535968
1743442286383,13:31:26.383,-1,-1,1447.61904761905,1.82490842490843,35.4719972535968
1743442286402,13:31:26.402,-1,-1,1432.23443223443,1.85128205128205,35.4719972535968
1743442286422,13:31:26.422,-1,-1,1424.17582417582,1.85274725274725,35.4719972535968
1743442286441,13:31:26.441,-1,-1,1408.79120879121,1.84102564102564,35.4719972535968
1743442286461,13:31:26.461,-1,-1,1402.1978021978,1.84395604395604,35.4719972535968
1743442286480,13:31:26.480,-1,-1,1394.13919413919,1.88058608058608,35.4719972535968
1743442286500,13:31:26.500,-1,-1,1397.0695970696,1.93333333333333,35.4719972535968
1743442286519,13:31:26.519,-1,-1,1405.12820512821,1.95091575091575,35.4719972535968
1743442286539,13:31:26.539,-1,-1,1397.0695970696,1.96117216117216,35.4719972535968
1743442286558,13:31:26.558,-1,-1,1384.61538461538,1.95970695970696,35.4719972535968
1743442286578,13:31:26.578,-1,-1,1375.09157509157,1.97435897435897,35.4719972535968
1743442286597,13:31:26.597,-1,-1,1364.10256410256,2.00512820512821,35.4719972535968
1743442286617,13:31:26.617,-1,-1,1360.43956043956,2.05054945054945,35.4719972535968
1743442286636,13:31:26.636,-1,-1,1350.91575091575,2.05347985347985,35.4719972535968
1743442286656,13:31:26.656,-1,-1,1333.33333333333,2.04175824175824,35.4719972535968
1743442286675,13:31:26.675,-1,-1,1311.35531135531,2.01098901098901,35.4719972535968
1743442286695,13:31:26.695,-1,-1,1293.04029304029,2.01098901098901,35.4819991583936
1743442286714,13:31:26.714,-1,-1,1289.37728937729,2.03150183150183,35.4819991583936
1743442286734,13:31:26.734,-1,-1,1290.10989010989,2.06520146520146,35.4819991583936
1743442286753,13:31:26.753,-1,-1,1278.38827838828,2.05494505494505,35.4819991583936
1743442286773,13:31:26.773,-1,-1,1268.13186813187,2.03882783882784,35.4819991583936
1743442286792,13:31:26.792,-1,-1,1269.59706959707,2.00512820512821,35.4819991583936
1743442286812,13:31:26.812,-1,-1,1260.80586080586,2.01391941391941,35.4819991583936
1743442286831,13:31:26.831,-1,-1,1267.39926739927,2.03736263736264,35.4819991583936
1743442286851,13:31:26.851,-1,-1,1276.19047619048,2.06959706959707,35.4819991583936
1743442286870,13:31:26.870,-1,-1,1276.92307692308,2.05934065934066,35.4819991583936
1743442286890,13:31:26.890,-1,-1,1282.78388278388,2.04615384615385,35.4819991583936
1743442286909,13:31:26.909,-1,-1,1293.04029304029,2.01978021978022,35.4819991583936
1743442286929,13:31:26.929,-1,-1,1311.35531135531,2.03882783882784,35.4819991583936
1743442286948,13:31:26.948,-1,-1,1352.38095238095,2.06813186813187,35.4819991583936
1743442286968,13:31:26.968,-1,-1,1419.04761904762,2.0959706959707,35.4819991583936
1743442286987,13:31:26.987,-1,-1,1472.52747252747,2.08424908424908,35.4819991583936
1743442287007,13:31:27.007,-1,-1,1529.67032967033,2.07545787545788,35.4819991583936
1743442287026,13:31:27.026,-1,-1,1567.03296703297,2.07252747252747,35.4819991583936
1743442287046,13:31:27.046,-1,-1,1586.81318681319,2.09304029304029,35.4819991583936
1743442287065,13:31:27.065,-1,-1,1589.74358974359,2.12380952380952,35.4819991583936
1743442287085,13:31:27.085,-1,-1,1588.27838827839,2.13846153846154,35.4819991583936
1743442287104,13:31:27.104,-1,-1,1565.56776556777,2.11062271062271,35.4819991583936
1743442287124,13:31:27.124,-1,-1,1549.45054945055,2.07252747252747,35.4819991583936
1743442287143,13:31:27.143,-1,-1,1543.58974358974,2.03150183150183,35.4819991583936
1743442287163,13:31:27.163,-1,-1,1536.99633699634,2.02124542124542,35.4819991583936
1743442287182,13:31:27.182,-1,-1,1530.40293040293,2.00512820512821,35.4819991583936
1743442287202,13:31:27.202,-1,-1,1517.21611721612,1.96410256410256,35.4819991583936
1743442287221,13:31:27.221,-1,-1,1501.8315018315,1.9040293040293,35.4819991583936
1743442287241,13:31:27.241,-1,-1,1475.45787545788,1.88351648351648,35.4819991583936
1743442287260,13:31:27.260,-1,-1,1466.66666666667,1.84395604395604,35.4819991583936
1743442287280,13:31:27.280,-1,-1,1449.81684981685,1.82490842490843,35.4819991583936
1743442287299,13:31:27.299,-1,-1,1435.16483516484,1.81758241758242,35.4819991583936
1743442287319,13:31:27.319,-1,-1,1429.30402930403,1.78681318681319,35.4819991583936
1743442287338,13:31:27.338,-1,-1,1426.37362637363,1.74432234432234,35.4819991583936
1743442287358,13:31:27.358,-1,-1,1426.37362637363,1.74432234432234,35.4819991583936
1743442287377,13:31:27.377,-1,-1,1416.11721611722,1.65347985347985,35.4819991583936
1743442287397,13:31:27.397,-1,-1,1403.663003663,1.62710622710623,35.4819991583936
1743442287416,13:31:27.416,-1,-1,1391.94139194139,1.61391941391941,35.4819991583936
1743442287436,13:31:27.436,-1,-1,1377.28937728938,1.59047619047619,35.4819991583936
1743442287455,13:31:27.455,-1,-1,1362.63736263736,1.56703296703297,35.4819991583936
1743442287475,13:31:27.475,-1,-1,1357.50915750916,1.52893772893773,35.4819991583936
1743442287494,13:31:27.494,-1,-1,1345.78754578755,1.51868131868132,35.4819991583936
1743442287514,13:31:27.514,-1,-1,1334.06593406593,1.53186813186813,35.4819991583936
1743442287533,13:31:27.533,-1,-1,1326.73992673993,1.54505494505494,35.4819991583936
1743442287553,13:31:27.553,-1,-1,1318.68131868132,1.53040293040293,35.4819991583936
1743442287572,13:31:27.572,-1,-1,1315.01831501831,1.50989010989011,35.4819991583936
1743442287592,13:31:27.592,-1,-1,1302.5641025641,1.47179487179487,35.4819991583936
1743442287611,13:31:27.611,-1,-1,1290.10989010989,1.46446886446886,35.4819991583936
1743442287631,13:31:27.631,-1,-1,1276.92307692308,1.46446886446886,35.4819991583936
1743442287650,13:31:27.650,-1,-1,1282.05128205128,1.47912087912088,35.4819991583936
1743442287670,13:31:27.670,-1,-1,1287.17948717949,1.45860805860806,35.4819991583936
1743442287689,13:31:27.689,-1,-1,1292.30769230769,1.43956043956044,35.4870001020608
1743442287709,13:31:27.709,-1,-1,1289.37728937729,1.41758241758242,35.4870001020608
1743442287728,13:31:27.728,-1,-1,1284.98168498168,1.42197802197802,35.4870001020608
1743442287748,13:31:27.748,-1,-1,1291.57509157509,1.43369963369963,35.4870001020608
1743442287767,13:31:27.767,-1,-1,1318.68131868132,1.45421245421245,35.4870001020608
1743442287787,13:31:27.787,-1,-1,1386.81318681319,1.44249084249084,35.4870001020608
1743442287806,13:31:27.806,-1,-1,1481.31868131868,1.42783882783883,35.4870001020608
1743442287826,13:31:27.826,-1,-1,1549.45054945055,1.4043956043956,35.4870001020608
1743442287845,13:31:27.845,-1,-1,1606.59340659341,1.41465201465201,35.4870001020608
1743442287865,13:31:27.865,-1,-1,1635.89743589744,1.43663003663004,35.4870001020608
1743442287884,13:31:27.884,-1,-1,1651.28205128205,1.45274725274725,35.4870001020608
1743442287904,13:31:27.904,-1,-1,1654.94505494505,1.43809523809524,35.4870001020608
1743442287923,13:31:27.923,-1,-1,1648.35164835165,1.41904761904762,35.4870001020608
1743442287943,13:31:27.943,-1,-1,1641.75824175824,1.3970695970696,35.4870001020608
1743442287962,13:31:27.962,-1,-1,1637.36263736264,1.40879120879121,35.4870001020608
1743442287982,13:31:27.982,-1,-1,1627.83882783883,1.43076923076923,35.4870001020608
1743442288001,13:31:28.001,-1,-1,1608.79120879121,1.44102564102564,35.4870001020608
1743442288021,13:31:28.021,-1,-1,1589.74358974359,1.42637362637363,35.4870001020608
1743442288040,13:31:28.040,-1,-1,1573.62637362637,1.4043956043956,35.4870001020608
1743442288060,13:31:28.060,-1,-1,1564.10256410256,1.38827838827839,35.4870001020608
1743442288079,13:31:28.079,-1,-1,1570.69597069597,1.4029304029304,35.4870001020608
1743442288099,13:31:28.099,-1,-1,1567.76556776557,1.42930402930403,35.4870001020608
1743442288118,13:31:28.118,-1,-1,1551.64835164835,1.43223443223443,35.4870001020608
1743442288138,13:31:28.138,-1,-1,1536.99633699634,1.41758241758242,35.4870001020608
1743442288157,13:31:28.157,-1,-1,1526.73992673993,1.39267399267399,35.4870001020608
1743442288177,13:31:28.177,-1,-1,1516.48351648352,1.38681318681319,35.4870001020608
1743442288196,13:31:28.196,-1,-1,1500.3663003663,1.38681318681319,35.4870001020608
1743442288216,13:31:28.216,-1,-1,1483.51648351648,1.38681318681319,35.4870001020608
1743442288235,13:31:28.235,-1,-1,1479.85347985348,1.38681318681319,35.4870001020608
1743442288255,13:31:28.255,-1,-1,1471.06227106227,1.38681318681319,35.4870001020608
1743442288274,13:31:28.274,-1,-1,1448.35164835165,1.48762348762349,35.4870001020608
1743442288294,13:31:28.294,-1,-1,1421.24542124542,1.48762348762349,35.4870001020608
1743442288313,13:31:28.313,-1,-1,1396.336996337,1.48762348762349,35.4870001020608
1743442288333,13:31:28.333,-1,-1,1383.15018315018,1.48762348762349,35.4870001020608
1743442288352,13:31:28.352,-1,-1,1372.89377289377,1.48762348762349,35.4870001020608
1743442288372,13:31:28.372,-1,-1,1367.76556776557,1.72820512820513,35.4870001020608
1743442288391,13:31:28.391,-1,-1,1369.23076923077,1.72527472527472,35.4870001020608
1743442288411,13:31:28.411,-1,-1,1372.16117216117,1.75457875457875,35.4870001020608
1743442288430,13:31:28.430,-1,-1,1354.57875457875,1.7956043956044,35.4870001020608
1743442288450,13:31:28.450,-1,-1,1342.85714285714,1.84542124542125,35.4870001020608
1743442288469,13:31:28.469,-1,-1,1343.58974358974,1.84981684981685,35.4870001020608
1743442288489,13:31:28.489,-1,-1,1336.99633699634,1.84835164835165,35.4870001020608
1743442288508,13:31:28.508,-1,-1,1333.33333333333,1.82344322344322,35.4870001020608
1743442288528,13:31:28.528,-1,-1,1344.32234432234,1.83223443223443,35.4870001020608
1743442288547,13:31:28.547,-1,-1,1347.98534798535,1.85274725274725,35.4870001020608
1743442288567,13:31:28.567,-1,-1,1386.81318681319,1.88644688644689,35.4870001020608
1743442288586,13:31:28.586,-1,-1,1471.06227106227,1.88058608058608,35.4870001020608
1743442288606,13:31:28.606,-1,-1,1573.62637362637,1.86886446886447,35.4870001020608
1743442288625,13:31:28.625,-1,-1,1665.93406593407,1.84542124542125,35.4870001020608
1743442288645,13:31:28.645,-1,-1,1730.40293040293,1.85860805860806,35.4870001020608
1743442288664,13:31:28.664,-1,-1,1773.62637362637,1.88791208791209,35.4870001020608
1743442288684,13:31:28.684,-1,-1,1797.8021978022,1.91575091575092,35.4870001020608
1743442288703,13:31:28.703,93,-1,1803.663003663,1.90695970695971,35.4870001020608
1743442288723,13:31:28.723,93,-1,1800,1.89377289377289,35.4870001020608
1743442288742,13:31:28.742,93,-1,1785.34798534799,1.87326007326007,35.4870001020608
1743442288762,13:31:28.762,93,-1,1772.16117216117,1.89084249084249,35.4870001020608
1743442288781,13:31:28.781,93,-1,1739.19413919414,1.92014652014652,35.4870001020608
1743442288801,13:31:28.801,93,-1,1705.49450549451,1.93919413919414,35.4870001020608
1743442288820,13:31:28.820,93,-1,1676.19047619048,1.92600732600733,35.4870001020608
1743442288840,13:31:28.840,93,-1,1658.60805860806,1.9040293040293,35.4870001020608
1743442288859,13:31:28.859,93,-1,1637.36263736264,1.88791208791209,35.4870001020608
1743442288879,13:31:28.879,93,-1,1612.45421245421,1.9054945054945,35.4870001020608
1743442288898,13:31:28.898,93,-1,1616.11721611722,1.93626373626374,35.4870001020608
1743442288918,13:31:28.918,93,-1,1619.04761904762,1.94652014652015,35.4870001020608
1743442288937,13:31:28.937,93,-1,1612.45421245421,1.93186813186813,35.4870001020608
1743442288957,13:31:28.957,93,-1,1601.4652014652,1.90695970695971,35.4870001020608
1743442288976,13:31:28.976,93,-1,1583.88278388278,1.89523809523809,35.4870001020608
1743442288996,13:31:28.996,93,-1,1562.63736263736,1.91135531135531,35.4870001020608
1743442289015,13:31:29.015,93,-1,1544.32234432234,1.94358974358974,35.4870001020608
1743442289035,13:31:29.035,93,-1,1526.73992673993,1.94358974358974,35.4870001020608
1743442289054,13:31:29.054,93,-1,1504.0293040293,1.92893772893773,35.4870001020608
1743442289074,13:31:29.074,93,-1,1473.99267399267,1.8981684981685,35.4870001020608
1743442289093,13:31:29.093,93,-1,1435.89743589744,1.89084249084249,35.4870001020608
1743442289113,13:31:29.113,93,-1,1404.3956043956,1.90842490842491,35.4870001020608
1743442289132,13:31:29.132,93,-1,1397.0695970696,1.94065934065934,35.4870001020608
1743442289152,13:31:29.152,93,-1,1397.8021978022,1.93772893772894,35.4870001020608
1743442289171,13:31:29.171,93,-1,1391.94139194139,1.92307692307692,35.4870001020608
1743442289191,13:31:29.191,93,-1,1392.67399267399,1.89084249084249,35.4870001020608
1743442289210,13:31:29.210,93,-1,1389.01098901099,1.89084249084249,35.4870001020608
1743442289230,13:31:29.230,93,-1,1376.55677655678,1.91135531135531,35.4870001020608
1743442289250,13:31:29.249,93,-1,1367.76556776557,1.94358974358974,35.4870001020608
1743442289269,13:31:29.269,93,-1,1359.70695970696,1.93626373626374,35.4870001020608
1743442289289,13:31:29.288,93,-1,1353.84615384615,1.92307692307692,35.4870001020608
1743442289308,13:31:29.308,93,-1,1352.38095238095,1.89084249084249,35.4870001020608
1743442289328,13:31:29.327,93,-1,1361.90476190476,1.8981684981685,35.4870001020608
1743442289347,13:31:29.347,93,-1,1361.90476190476,1.8981684981685,35.4870001020608
1743442289367,13:31:29.367,93,-1,1491.57509157509,1.93333333333333,35.4870001020608
1743442289386,13:31:29.386,93,-1,1603.663003663,1.92161172161172,35.4870001020608
1743442289406,13:31:29.406,93,-1,1734.79853479853,1.88791208791209,35.4870001020608
1743442289425,13:31:29.425,93,-1,1849.08424908425,1.84249084249084,35.4870001020608
1743442289445,13:31:29.445,90,-1,1931.13553113553,1.84835164835165,35.4870001020608
1743442289464,13:31:29.464,90,-1,1994.87179487179,1.87619047619048,35.4870001020608
1743442289484,13:31:29.484,90,-1,2030.76923076923,1.90842490842491,35.4870001020608
1743442289503,13:31:29.503,90,-1,2046.88644688645,1.9040293040293,35.4870001020608
1743442289523,13:31:29.523,90,-1,2032.96703296703,1.89230769230769,35.4870001020608
1743442289542,13:31:29.542,90,-1,2003.663003663,1.87179487179487,35.4870001020608
1743442289562,13:31:29.562,90,-1,1963.36996336996,1.89377289377289,35.4870001020608
1743442289581,13:31:29.581,90,-1,1909.89010989011,1.92893772893773,35.4870001020608
1743442289601,13:31:29.601,90,-1,1843.95604395604,1.96410256410256,35.4870001020608
1743442289620,13:31:29.620,90,-1,1784.61538461538,1.98315018315018,35.4870001020608
1743442289640,13:31:29.640,90,-1,1757.50915750916,1.97582417582418,35.4870001020608
1743442289659,13:31:29.659,90,-1,1741.39194139194,1.96263736263736,35.4870001020608
1743442289679,13:31:29.679,90,-1,1731.13553113553,1.98754578754579,35.4970019719331
1743442289698,13:31:29.698,90,-1,1720.14652014652,2.03150183150183,35.4970019719331
1743442289718,13:31:29.718,90,-1,1716.48351648352,2.07106227106227,35.4970019719331
1743442289737,13:31:29.737,90,-1,1712.08791208791,2.06959706959707,35.4970019719331
1743442289757,13:31:29.757,90,-1,1688.64468864469,2.05054945054945,35.4970019719331
1743442289776,13:31:29.776,90,-1,1644.68864468864,2.04175824175824,35.4970019719331
1743442289796,13:31:29.796,90,-1,1598.5347985348,2.09157509157509,35.4970019719331
1743442289815,13:31:29.815,90,-1,1555.31135531136,2.15604395604396,35.4970019719331
1743442289835,13:31:29.835,90,-1,1512.08791208791,2.18534798534799,35.4970019719331
1743442289854,13:31:29.854,90,-1,1477.65567765568,2.18534798534799,35.4970019719331
1743442289874,13:31:29.874,90,-1,1454.94505494505,2.16483516483516,35.4970019719331
1743442289893,13:31:29.893,90,-1,1427.10622710623,2.16776556776557,35.4970019719331
1743442289913,13:31:29.913,90,-1,1410.25641025641,2.1970695970696,35.4970019719331
1743442289932,13:31:29.932,90,-1,1391.94139194139,2.23663003663004,35.4970019719331
1743442289952,13:31:29.952,90,-1,1372.16117216117,2.24542124542124,35.4970019719331
1743442289971,13:31:29.971,90,-1,1350.91575091575,2.24249084249084,35.4970019719331
1743442289991,13:31:29.991,90,-1,1349.45054945055,2.21758241758242,35.4970019719331
1743442290010,13:31:30.010,90,-1,1342.85714285714,2.22783882783883,35.4970019719331
1743442290030,13:31:30.030,90,-1,1343.58974358974,2.26007326007326,35.4970019719331
1743442290049,13:31:30.049,90,-1,1336.99633699634,2.3010989010989,35.4970019719331
1743442290069,13:31:30.069,90,-1,1331.13553113553,2.3025641025641,35.4970019719331
1743442290088,13:31:30.088,90,-1,1324.54212454212,2.2967032967033,35.4970019719331
1743442290108,13:31:30.108,90,-1,1309.15750915751,2.27179487179487,35.4970019719331
1743442290127,13:31:30.127,90,-1,1291.57509157509,2.28498168498168,35.4970019719331
1743442290147,13:31:30.147,90,-1,1300.3663003663,2.31868131868132,35.4970019719331
1743442290166,13:31:30.166,90,-1,1388.27838827839,2.36849816849817,35.4970019719331
1743442290186,13:31:30.186,81,-1,1545.05494505494,2.37875457875458,35.4970019719331
1743442290205,13:31:30.205,81,-1,1742.85714285714,2.38168498168498,35.4970019719331
1743442290225,13:31:30.225,81,-1,1924.54212454212,2.35824175824176,35.4970019719331
1743442290244,13:31:30.244,81,-1,2072.52747252747,2.36996336996337,35.4970019719331
1743442290264,13:31:30.264,81,-1,2171.42857142857,2.39487179487179,35.4970019719331
1743442290283,13:31:30.283,81,-1,2219.78021978022,2.42417582417582,35.4970019719331
1743442290303,13:31:30.303,81,-1,2238.09523809524,2.41391941391941,35.4970019719331
1743442290322,13:31:30.322,81,-1,2236.63003663004,2.3978021978022,35.4970019719331
1743442290342,13:31:30.342,81,-1,2213.91941391941,2.37289377289377,35.4970019719331
1743442290361,13:31:30.361,81,-1,2170.69597069597,2.38901098901099,35.4970019719331
1743442290381,13:31:30.381,81,-1,2109.15750915751,2.41391941391941,35.4970019719331
1743442290400,13:31:30.400,81,-1,2037.36263736264,2.43589743589744,35.4970019719331
1743442290420,13:31:30.420,81,-1,1953.84615384615,2.42124542124542,35.4970019719331
1743442290439,13:31:30.439,81,-1,1877.65567765568,2.3992673992674,35.4970019719331
1743442290459,13:31:30.459,81,-1,1814.65201465201,2.37435897435897,35.4970019719331
1743442290478,13:31:30.478,81,-1,1789.01098901099,2.38901098901099,35.4970019719331
1743442290498,13:31:30.498,81,-1,1769.96336996337,2.41391941391941,35.4970019719331
1743442290517,13:31:30.517,81,-1,1762.63736263736,2.42417582417582,35.4970019719331
1743442290537,13:31:30.537,81,-1,1751.64835164835,2.40512820512821,35.4970019719331
1743442290556,13:31:30.556,81,-1,1728.20512820513,2.37875457875458,35.4970019719331
1743442290576,13:31:30.576,81,-1,1687.17948717949,2.35824175824176,35.4970019719331
1743442290595,13:31:30.595,81,-1,1641.75824175824,2.36996336996337,35.4970019719331
1743442290615,13:31:30.615,81,-1,1591.20879120879,2.396336996337,35.4970019719331
1743442290634,13:31:30.634,81,-1,1549.45054945055,2.3978021978022,35.4970019719331
1743442290654,13:31:30.654,81,-1,1501.8315018315,2.37875457875458,35.4970019719331
1743442290673,13:31:30.673,81,-1,1452.01465201465,2.34652014652015,35.5170056418283
1743442290693,13:31:30.693,81,-1,1410.25641025641,2.33333333333333,35.5170056418283
1743442290712,13:31:30.712,81,-1,1379.48717948718,2.34652014652015,35.5170056418283
1743442290732,13:31:30.732,81,-1,1348.71794871795,2.37435897435897,35.5170056418283
1743442290751,13:31:30.751,81,-1,1329.67032967033,2.36996336996337,35.5170056418283
1743442290771,13:31:30.771,81,-1,1307.69230769231,2.35238095238095,35.5170056418283
1743442290790,13:31:30.790,81,-1,1303.2967032967,2.31868131868132,35.5170056418283
1743442290810,13:31:30.810,81,-1,1298.9010989011,2.30989010989011,35.5170056418283
1743442290829,13:31:30.829,81,-1,1308.42490842491,2.32454212454212,35.5170056418283
1743442290849,13:31:30.849,81,-1,1310.62271062271,2.35384615384615,35.5170056418283
1743442290868,13:31:30.868,81,-1,1307.69230769231,2.34505494505494,35.5170056418283
1743442290888,13:31:30.888,81,-1,1305.49450549451,2.32600732600733,35.5170056418283
1743442290907,13:31:30.907,81,-1,1298.1684981685,2.29230769230769,35.5170056418283
1743442290927,13:31:30.927,81,-1,1279.85347985348,2.29230769230769,35.5170056418283
1743442290946,13:31:30.946,81,-1,1253.47985347985,2.30842490842491,35.5170056418283
1743442290966,13:31:30.966,81,-1,1246.15384615385,2.33333333333333,35.5170056418283
1743442290985,13:31:30.985,81,-1,1304.7619047619,2.31868131868132,35.5170056418283
1743442291005,13:31:31.005,81,-1,1426.37362637363,2.2996336996337,35.5170056418283
1743442291024,13:31:31.024,81,-1,1616.84981684982,2.26300366300366,35.5170056418283
1743442291044,13:31:31.044,81,-1,1835.16483516484,2.26446886446886,35.5170056418283
1743442291063,13:31:31.063,81,-1,2012.45421245421,2.28058608058608,35.5170056418283
1743442291083,13:31:31.083,81,-1,2139.19413919414,2.32307692307692,35.5170056418283
1743442291102,13:31:31.102,81,-1,2214.65201465201,2.31721611721612,35.5170056418283
1743442291122,13:31:31.122,81,-1,2237.36263736264,2.2967032967033,35.5170056418283
1743442291141,13:31:31.141,81,-1,2222.71062271062,2.26300366300366,35.5170056418283
1743442291161,13:31:31.161,81,-1,2182.41758241758,2.26739926739927,35.5170056418283
1743442291180,13:31:31.180,81,-1,2123.80952380952,2.28351648351648,35.5170056418283
1743442291200,13:31:31.200,81,-1,2065.20146520146,2.3010989010989,35.5170056418283
1743442291219,13:31:31.219,81,-1,2002.1978021978,2.28205128205128,35.5170056418283
1743442291239,13:31:31.239,81,-1,1904.0293040293,2.25567765567766,35.5170056418283
1743442291258,13:31:31.258,81,-1,1784.61538461538,2.22490842490842,35.5170056418283
1743442291278,13:31:31.278,81,-1,1692.30769230769,2.23516483516484,35.5170056418283
1743442291297,13:31:31.297,81,-1,1633.69963369963,2.25421245421245,35.5170056418283
1743442291317,13:31:31.317,81,-1,1597.0695970696,2.26593406593407,35.5170056418283
1743442291336,13:31:31.336,81,-1,1561.90476190476,2.24835164835165,35.5170056418283
1743442291356,13:31:31.356,81,-1,1561.90476190476,2.24835164835165,35.5170056418283
1743442291375,13:31:31.375,81,-1,1493.04029304029,2.1970695970696,35.5170056418283
1743442291395,13:31:31.395,81,-1,1475.45787545788,2.20732600732601,35.5170056418283
1743442291414,13:31:31.414,81,-1,1446.15384615385,2.23076923076923,35.5170056418283
1743442291434,13:31:31.434,81,-1,1410.98901098901,2.23369963369963,35.5170056418283
1743442291453,13:31:31.453,81,-1,1368.49816849817,2.21465201465201,35.5170056418283
1743442291473,13:31:31.473,81,-1,1320.87912087912,2.18388278388278,35.5170056418283
1743442291492,13:31:31.492,81,-1,1261.53846153846,2.16923076923077,35.5170056418283
1743442291512,13:31:31.512,81,-1,1215.38461538462,2.17948717948718,35.5170056418283
1743442291531,13:31:31.531,81,-1,1189.74358974359,2.2,35.5170056418283
1743442291551,13:31:31.551,81,-1,1193.40659340659,2.19560439560439,35.5170056418283
1743442291570,13:31:31.570,81,-1,1199.2673992674,2.17655677655678,35.5170056418283
1743442291590,13:31:31.590,81,-1,1224.90842490842,2.14725274725275,35.5170056418283
1743442291609,13:31:31.609,81,-1,1243.22344322344,2.13992673992674,35.5170056418283
1743442291629,13:31:31.629,81,-1,1249.08424908425,2.15018315018315,35.5170056418283
1743442291648,13:31:31.648,81,-1,1249.08424908425,2.16776556776557,35.5170056418283
1743442291668,13:31:31.668,81,-1,1241.02564102564,2.15897435897436,35.5170056418283
1743442291687,13:31:31.687,81,-1,1220.51282051282,2.14432234432234,35.5170056418283
1743442291707,13:31:31.707,81,-1,1204.3956043956,2.12087912087912,35.5170056418283
1743442291726,13:31:31.726,81,-1,1201.4652014652,2.11794871794872,35.5170056418283
1743442291746,13:31:31.746,81,-1,1197.0695970696,2.12820512820513,35.5170056418283
1743442291765,13:31:31.765,81,-1,1189.74358974359,2.14432234432234,35.5170056418283
1743442291785,13:31:31.785,81,-1,1189.74358974359,2.13260073260073,35.5170056418283
1743442291804,13:31:31.804,81,-1,1182.41758241758,2.12234432234432,35.5170056418283
1743442291824,13:31:31.824,75,-1,1204.3956043956,2.1003663003663,35.5170056418283
1743442291843,13:31:31.843,75,-1,1295.2380952381,2.1032967032967,35.5170056418283
1743442291863,13:31:31.863,75,-1,1460.07326007326,2.11355311355311,35.5170056418283
1743442291882,13:31:31.882,75,-1,1679.12087912088,2.12527472527472,35.5170056418283
1743442291902,13:31:31.902,75,-1,1876.92307692308,2.11355311355311,35.5170056418283
1743442291921,13:31:31.921,75,-1,2018.31501831502,2.1032967032967,35.5170056418283
1743442291941,13:31:31.941,75,-1,2102.5641025641,2.08424908424908,35.5170056418283
1743442291960,13:31:31.960,75,-1,2134.06593406593,2.09010989010989,35.5170056418283
1743442291980,13:31:31.980,75,-1,2112.08791208791,2.1003663003663,35.5170056418283
1743442291999,13:31:31.999,75,-1,2057.87545787546,2.11208791208791,35.5170056418283
1743442292019,13:31:32.019,75,-1,1993.40659340659,2.11648351648352,35.5170056418283
1743442292038,13:31:32.038,75,-1,1919.41391941392,2.11062271062271,35.5170056418283
1743442292058,13:31:32.058,75,-1,1843.22344322344,2.0974358974359,35.5170056418283
1743442292077,13:31:32.077,75,-1,1764.83516483516,2.10622710622711,35.5170056418283
1743442292097,13:31:32.097,75,-1,1668.86446886447,2.11794871794872,35.5170056418283
1743442292116,13:31:32.116,75,-1,1589.01098901099,2.12234432234432,35.5170056418283
1743442292136,13:31:32.136,75,-1,1536.99633699634,2.11062271062271,35.5170056418283
1743442292155,13:31:32.155,75,-1,1493.04029304029,2.1018315018315,35.5170056418283
1743442292175,13:31:32.175,75,-1,1449.81684981685,2.09157509157509,35.5170056418283
1743442292194,13:31:32.194,75,-1,1411.72161172161,2.1032967032967,35.5170056418283
1743442292214,13:31:32.214,75,-1,1380.21978021978,2.11648351648352,35.5170056418283
1743442292233,13:31:32.233,75,-1,1339.19413919414,2.11794871794872,35.5170056418283
1743442292253,13:31:32.253,75,-1,1285.71428571429,2.11062271062271,35.5170056418283
1743442292272,13:31:32.272,75,-1,1254.94505494505,2.1018315018315,35.5170056418283
1743442292292,13:31:32.292,75,-1,1240.29304029304,2.0974358974359,35.5170056418283
1743442292311,13:31:32.311,75,-1,1213.18681318681,2.11208791208791,35.5170056418283
1743442292331,13:31:32.331,75,-1,1164.10256410256,2.12967032967033,35.5170056418283
1743442292350,13:31:32.350,75,-1,1118.68131868132,2.12820512820513,35.5170056418283
1743442292370,13:31:32.370,75,-1,1087.91208791209,2.12087912087912,35.5170056418283
1743442292389,13:31:32.389,75,-1,1082.05128205128,2.11062271062271,35.5170056418283
1743442292409,13:31:32.409,75,-1,1084.24908424908,2.11062271062271,35.5170056418283
1743442292428,13:31:32.428,75,-1,1076.92307692308,2.12380952380952,35.5170056418283
1743442292448,13:31:32.448,75,-1,1063.00366300366,2.13992673992674,35.5170056418283
1743442292467,13:31:32.467,75,-1,1070.32967032967,2.13699633699634,35.5170056418283
1743442292487,13:31:32.487,75,-1,1088.64468864469,2.13260073260073,35.5170056418283
1743442292506,13:31:32.506,75,-1,1117.94871794872,2.12087912087912,35.5170056418283
1743442292526,13:31:32.526,75,-1,1145.05494505494,2.12380952380952,35.5170056418283
1743442292545,13:31:32.545,75,-1,1153.11355311355,2.14139194139194,35.5170056418283
1743442292565,13:31:32.565,75,-1,1155.31135531136,2.16190476190476,35.5170056418283
1743442292584,13:31:32.584,75,-1,1143.58974358974,2.15897435897436,35.5170056418283
1743442292604,13:31:32.604,75,-1,1123.80952380952,2.15604395604396,35.5170056418283
1743442292623,13:31:32.623,72,-1,1124.54212454212,2.14432234432234,35.5170056418283
1743442292643,13:31:32.643,72,-1,1145.78754578755,2.15604395604396,35.5170056418283
1743442292662,13:31:32.662,72,-1,1227.83882783883,2.17655677655678,35.5170056418283
1743442292682,13:31:32.682,72,-1,1378.75457875458,2.2014652014652,35.5170056418283
1743442292701,13:31:32.701,72,-1,1549.45054945055,2.1970695970696,35.5170056418283
1743442292721,13:31:32.721,72,-1,1706.22710622711,2.19267399267399,35.5170056418283
1743442292740,13:31:32.740,72,-1,1821.24542124542,2.17509157509157,35.5170056418283
1743442292760,13:31:32.760,72,-1,1906.22710622711,2.18534798534799,35.5170056418283
1743442292779,13:31:32.779,72,-1,1961.90476190476,2.20586080586081,35.5170056418283
1743442292799,13:31:32.799,72,-1,1975.82417582418,2.22783882783883,35.5170056418283
1743442292818,13:31:32.818,72,-1,1956.04395604396,2.22051282051282,35.5170056418283
1743442292838,13:31:32.838,72,-1,1910.62271062271,2.21904761904762,35.5170056418283
1743442292857,13:31:32.857,72,-1,1852.74725274725,2.20732600732601,35.5170056418283
1743442292877,13:31:32.877,72,-1,1769.23076923077,2.22344322344322,35.5170056418283
1743442292896,13:31:32.896,72,-1,1687.17948717949,2.26007326007326,35.5170056418283
1743442292916,13:31:32.916,72,-1,1607.32600732601,2.27912087912088,35.5170056418283
1743442292935,13:31:32.935,72,-1,1546.52014652015,2.27179487179487,35.5170056418283
1743442292955,13:31:32.955,72,-1,1514.28571428571,2.26300366300366,35.5170056418283
1743442292974,13:31:32.974,72,-1,1509.15750915751,2.24981684981685,35.5170056418283
1743442292994,13:31:32.994,72,-1,1510.62271062271,2.26593406593407,35.5170056418283
1743442293013,13:31:33.013,72,-1,1502.5641025641,2.28937728937729,35.5170056418283
1743442293033,13:31:33.033,72,-1,1484.24908424908,2.3040293040293,35.5170056418283
1743442293052,13:31:33.052,72,-1,1468.86446886447,2.2967032967033,35.5170056418283
1743442293072,13:31:33.072,72,-1,1443.22344322344,2.28791208791209,35.5170056418283
1743442293091,13:31:33.091,72,-1,1411.72161172161,2.27912087912088,35.5170056418283
1743442293111,13:31:33.111,72,-1,1385.34798534799,2.2952380952381,35.5170056418283
1743442293130,13:31:33.130,72,-1,1358.97435897436,2.31721611721612,35.5170056418283
1743442293150,13:31:33.150,72,-1,1323.80952380952,2.33333333333333,35.5170056418283
1743442293169,13:31:33.169,72,-1,1284.24908424908,2.32747252747253,35.5170056418283
1743442293189,13:31:33.189,72,-1,1246.15384615385,2.30989010989011,35.5170056418283
1743442293208,13:31:33.208,72,-1,1230.76923076923,2.3040293040293,35.5170056418283
1743442293228,13:31:33.228,72,-1,1204.3956043956,2.32454212454212,35.5170056418283
1743442293247,13:31:33.247,72,-1,1185.34798534799,2.34798534798535,35.5170056418283
1743442293267,13:31:33.267,72,-1,1175.09157509158,2.34505494505494,35.5170056418283
1743442293286,13:31:33.286,72,-1,1161.90476190476,2.33626373626374,35.5170056418283
1743442293306,13:31:33.306,72,-1,1145.05494505494,2.31575091575092,35.5170056418283
1743442293325,13:31:33.325,72,-1,1153.84615384615,2.31282051282051,35.5170056418283
1743442293345,13:31:33.345,72,-1,1153.84615384615,2.31282051282051,35.5170056418283
1743442293364,13:31:33.364,72,-1,1261.53846153846,2.34505494505494,35.5170056418283
1743442293384,13:31:33.384,72,-1,1400.7326007326,2.33479853479853,35.5170056418283
1743442293403,13:31:33.403,72,-1,1569.23076923077,2.32307692307692,35.5170056418283
1743442293423,13:31:33.423,75,-1,1731.86813186813,2.2996336996337,35.5170056418283
1743442293442,13:31:33.442,75,-1,1851.28205128205,2.3010989010989,35.5170056418283
1743442293462,13:31:33.462,75,-1,1898.9010989011,2.31282051282051,35.5170056418283
1743442293481,13:31:33.481,75,-1,1906.95970695971,2.33333333333333,35.5170056418283
1743442293501,13:31:33.501,75,-1,1874.72527472527,2.32307692307692,35.5170056418283
1743442293520,13:31:33.520,75,-1,1813.18681318681,2.32161172161172,35.5170056418283
1743442293540,13:31:33.540,75,-1,1733.33333333333,2.3025641025641,35.5170056418283
1743442293559,13:31:33.559,75,-1,1652.74725274725,2.30989010989011,35.5170056418283
1743442293579,13:31:33.579,75,-1,1568.49816849817,2.33040293040293,35.5170056418283
1743442293598,13:31:33.598,75,-1,1487.17948717949,2.35384615384615,35.5170056418283
1743442293618,13:31:33.618,75,-1,1429.30402930403,2.34358974358974,35.5170056418283
1743442293637,13:31:33.637,75,-1,1389.74358974359,2.33333333333333,35.5170056418283
1743442293657,13:31:33.657,75,-1,1364.83516483516,2.30989010989011,35.5270074418513
1743442293676,13:31:33.676,75,-1,1342.85714285714,2.31575091575092,35.5270074418513
1743442293696,13:31:33.696,75,-1,1341.39194139194,2.33186813186813,35.5270074418513
1743442293715,13:31:33.715,75,-1,1356.04395604396,2.34505494505494,35.5270074418513
1743442293735,13:31:33.735,75,-1,1364.10256410256,2.32893772893773,35.5270074418513
1743442293754,13:31:33.754,75,-1,1347.98534798535,2.31135531135531,35.5270074418513
1743442293774,13:31:33.774,75,-1,1331.86813186813,2.29084249084249,35.5270074418513
1743442293793,13:31:33.793,75,-1,1304.0293040293,2.3025641025641,35.5270074418513
1743442293813,13:31:33.813,75,-1,1268.13186813187,2.32014652014652,35.5270074418513
1743442293832,13:31:33.832,75,-1,1209.52380952381,2.33333333333333,35.5270074418513
1743442293852,13:31:33.852,75,-1,1158.24175824176,2.32014652014652,35.5270074418513
1743442293871,13:31:33.871,75,-1,1135.53113553114,2.3010989010989,35.5270074418513
1743442293891,13:31:33.891,75,-1,1123.80952380952,2.28351648351648,35.5270074418513
1743442293910,13:31:33.910,75,-1,1120.87912087912,2.29230769230769,35.5270074418513
1743442293930,13:31:33.930,75,-1,1106.22710622711,2.30989010989011,35.5270074418513
1743442293949,13:31:33.949,75,-1,1095.9706959707,2.31282051282051,35.5270074418513
1743442293969,13:31:33.969,75,-1,1087.17948717949,2.2981684981685,35.5270074418513
1743442293988,13:31:33.988,75,-1,1072.52747252747,2.27619047619048,35.5270074418513
1743442294008,13:31:34.008,75,-1,1061.53846153846,2.26153846153846,35.5270074418513
1743442294027,13:31:34.027,75,-1,1054.21245421245,2.27179487179487,35.5270074418513
1743442294047,13:31:34.047,75,-1,1056.41025641026,2.28791208791209,35.5270074418513
1743442294066,13:31:34.066,75,-1,1089.37728937729,2.28498168498168,35.5270074418513
1743442294086,13:31:34.086,75,-1,1181.68498168498,2.26593406593407,35.5270074418513
1743442294105,13:31:34.105,75,-1,1339.19413919414,2.23663003663004,35.5270074418513
1743442294125,13:31:34.125,75,-1,1531.13553113553,2.22197802197802,35.5270074418513
1743442294144,13:31:34.144,75,-1,1732.60073260073,2.22051282051282,35.5270074418513
1743442294164,13:31:34.164,75,-1,1908.42490842491,2.22051282051282,35.5270074418513
1743442294183,13:31:34.183,75,-1,2003.663003663,2.2,35.5270074418513
1743442294203,13:31:34.203,75,-1,2039.56043956044,2.17802197802198,35.5270074418513
1743442294222,13:31:34.222,75,-1,2048.35164835165,2.12527472527472,35.5270074418513
1743442294242,13:31:34.242,75,-1,2016.84981684982,2.1018315018315,35.5270074418513
1743442294261,13:31:34.261,75,-1,1960.43956043956,2.1018315018315,35.5270074418513
1743442294281,13:31:34.281,75,-1,1895.9706959707,2.1018315018315,35.5270074418513
1743442294300,13:31:34.300,75,-1,1837.36263736264,2.08278388278388,35.5270074418513
1743442294320,13:31:34.320,75,-1,1755.31135531136,2.07399267399267,35.5270074418513
1743442294339,13:31:34.339,75,-1,1652.01465201465,2.05201465201465,35.5270074418513
1743442294359,13:31:34.359,75,-1,1558.97435897436,2.04908424908425,35.5270074418513
1743442294378,13:31:34.378,75,-1,1487.91208791209,2.05347985347985,35.5270074418513
1743442294398,13:31:34.398,75,-1,1427.10622710623,2.06520146520146,35.5270074418513
1743442294417,13:31:34.417,75,-1,1406.59340659341,2.04029304029304,35.5270074418513
1743442294437,13:31:34.437,75,-1,1401.4652014652,2.01098901098901,35.5270074418513
1743442294456,13:31:34.456,75,-1,1391.20879120879,1.98315018315018,35.5270074418513
1743442294476,13:31:34.476,75,-1,1364.10256410256,1.96703296703297,35.5270074418513
1743442294495,13:31:34.495,75,-1,1309.89010989011,1.94065934065934,35.5270074418513
1743442294515,13:31:34.515,75,-1,1250.54945054945,1.91282051282051,35.5270074418513
1743442294534,13:31:34.534,75,-1,1210.25641025641,1.88644688644689,35.5270074418513
1743442294554,13:31:34.554,75,-1,1189.74358974359,1.88205128205128,35.5270074418513
1743442294573,13:31:34.573,75,-1,1193.40659340659,1.88351648351648,35.5270074418513
1743442294593,13:31:34.593,75,-1,1178.02197802198,1.89230769230769,35.5270074418513
1743442294612,13:31:34.612,75,-1,1148.71794871795,1.9010989010989,35.5270074418513
1743442294632,13:31:34.632,75,-1,1126.73992673993,1.90695970695971,35.5270074418513
1743442294651,13:31:34.651,75,-1,1093.04029304029,1.91135531135531,35.5320083331317
1743442294671,13:31:34.671,75,-1,1057.14285714286,1.91428571428571,35.5320083331317
1743442294690,13:31:34.690,75,-1,1021.97802197802,1.91721611721612,35.5320083331317
1743442294710,13:31:34.710,75,-1,990.47619047619,1.92014652014652,35.5320083331317
1743442294729,13:31:34.729,75,-1,985.347985347985,1.92600732600733,35.5320083331317
1743442294749,13:31:34.749,75,-1,1036.63003663004,1.93333333333333,35.5320083331317
1743442294768,13:31:34.768,75,-1,1106.22710622711,1.94358974358974,35.5320083331317
1743442294788,13:31:34.788,75,-1,1177.28937728938,1.95531135531136,35.5320083331317
1743442294807,13:31:34.807,75,-1,1230.03663003663,1.96849816849817,35.5320083331317
1743442294827,13:31:34.827,75,-1,1271.06227106227,1.97582417582418,35.5320083331317
1743442294846,13:31:34.846,75,-1,1342.12454212454,1.97875457875458,35.5320083331317
1743442294866,13:31:34.866,75,-1,1451.28205128205,1.98168498168498,35.5320083331317
1743442294885,13:31:34.885,75,-1,1596.336996337,1.98168498168498,35.5320083331317
1743442294905,13:31:34.905,75,-1,1745.78754578755,1.98168498168498,35.5320083331317
1743442294924,13:31:34.924,75,-1,1876.19047619048,1.98021978021978,35.5320083331317
1743442294944,13:31:34.944,75,-1,1965.56776556777,1.98315018315018,35.5320083331317
1743442294963,13:31:34.963,75,-1,1997.8021978022,1.98168498168498,35.5320083331317
1743442294983,13:31:34.983,75,-1,1989.01098901099,1.98021978021978,35.5320083331317
1743442295002,13:31:35.002,75,-1,1958.24175824176,1.98315018315018,35.5320083331317
1743442295022,13:31:35.022,75,-1,1917.21611721612,1.98168498168498,35.5320083331317
1743442295041,13:31:35.041,75,-1,1865.93406593407,1.98168498168498,35.5320083331317
1743442295061,13:31:35.061,75,-1,1804.3956043956,1.99047619047619,35.5320083331317
1743442295080,13:31:35.080,75,-1,1727.47252747253,1.99194139194139,35.5320083331317
1743442295100,13:31:35.100,75,-1,1630.76923076923,1.99487179487179,35.5320083331317
1743442295119,13:31:35.119,75,-1,1534.06593406593,2.00805860805861,35.5320083331317
1743442295139,13:31:35.139,75,-1,1446.15384615385,2.01245421245421,35.5320083331317
1743442295158,13:31:35.158,75,-1,1381.68498168498,2.01098901098901,35.5320083331317
1743442295178,13:31:35.178,75,-1,1350.91575091575,2.00659340659341,35.5320083331317
1743442295197,13:31:35.197,75,-1,1336.99633699634,2.0021978021978,35.5320083331317
1743442295217,13:31:35.217,75,-1,1325.27472527473,2.0021978021978,35.5320083331317
1743442295236,13:31:35.236,75,-1,1317.21611721612,1.9992673992674,35.5320083331317
1743442295256,13:31:35.256,75,-1,1320.14652014652,1.99340659340659,35.5320083331317
1743442295275,13:31:35.275,75,-1,1293.77289377289,1.99047619047619,35.5320083331317
1743442295295,13:31:35.295,75,-1,1250.54945054945,1.98608058608059,35.5320083331317
1743442295314,13:31:35.314,75,-1,1223.44322344322,1.98168498168498,35.5320083331317
1743442295334,13:31:35.334,75,-1,1211.72161172161,1.97435897435897,35.5320083331317
1743442295353,13:31:35.353,75,-1,1183.15018315018,1.96996336996337,35.5320083331317
1743442295373,13:31:35.373,75,-1,1153.11355311355,1.96703296703297,35.5320083331317
1743442295392,13:31:35.392,75,-1,1128.20512820513,1.96410256410256,35.5320083331317
1743442295412,13:31:35.412,75,-1,1095.9706959707,1.96263736263736,35.5320083331317
1743442295431,13:31:35.431,75,-1,1074.72527472527,1.96263736263736,35.5320083331317
1743442295451,13:31:35.451,75,-1,1067.39926739927,1.95970695970696,35.5320083331317
1743442295470,13:31:35.470,75,-1,1052.74725274725,1.95970695970696,35.5320083331317
1743442295490,13:31:35.490,75,-1,1038.82783882784,1.96703296703297,35.5320083331317
1743442295509,13:31:35.509,75,-1,1021.97802197802,1.96996336996337,35.5320083331317
1743442295529,13:31:35.529,75,-1,1029.30402930403,1.96849816849817,35.5320083331317
1743442295548,13:31:35.548,75,-1,1035.16483516484,1.96556776556777,35.5320083331317
1743442295568,13:31:35.568,75,-1,1049.81684981685,1.96263736263736,35.5320083331317
1743442295587,13:31:35.587,75,-1,1106.95970695971,1.95970695970696,35.5320083331317
1743442295607,13:31:35.607,75,-1,1200.7326007326,1.97728937728938,35.5320083331317
1743442295626,13:31:35.626,75,-1,1355.31135531136,1.98315018315018,35.5320083331317
1743442295646,13:31:35.646,75,-1,1534.06593406593,1.98315018315018,35.5420100982301
1743442295665,13:31:35.665,75,-1,1678.38827838828,1.98754578754579,35.5420100982301
1743442295685,13:31:35.685,75,-1,1758.24175824176,1.98901098901099,35.5420100982301
1743442295704,13:31:35.704,75,-1,1800,1.98901098901099,35.5420100982301
1743442295724,13:31:35.724,75,-1,1815.38461538462,1.98901098901099,35.5420100982301
1743442295743,13:31:35.743,75,-1,1803.663003663,1.98901098901099,35.5420100982301
1743442295763,13:31:35.763,75,-1,1775.09157509157,1.98901098901099,35.5420100982301
1743442295782,13:31:35.782,75,-1,1738.46153846154,1.98461538461538,35.5420100982301
1743442295802,13:31:35.802,75,-1,1694.50549450549,1.97289377289377,35.5420100982301
1743442295821,13:31:35.821,75,-1,1631.50183150183,1.96703296703297,35.5420100982301
1743442295841,13:31:35.841,75,-1,1542.12454212454,1.96410256410256,35.5420100982301
1743442295860,13:31:35.860,75,-1,1450.54945054945,1.95970695970696,35.5420100982301
1743442295880,13:31:35.880,75,-1,1380.21978021978,1.95531135531136,35.5420100982301
1743442295899,13:31:35.899,72,-1,1339.92673992674,1.95091575091575,35.5420100982301
1743442295919,13:31:35.919,72,-1,1307.69230769231,1.95531135531136,35.5420100982301
1743442295938,13:31:35.938,72,-1,1285.71428571429,1.95531135531136,35.5420100982301
1743442295958,13:31:35.958,72,-1,1262.27106227106,1.95824175824176,35.5420100982301
1743442295977,13:31:35.977,72,-1,1243.95604395604,1.95677655677656,35.5420100982301
1743442295997,13:31:35.997,72,-1,1224.90842490842,1.95531135531136,35.5420100982301
1743442296016,13:31:36.016,72,-1,1216.11721611722,1.96263736263736,35.5420100982301
1743442296036,13:31:36.036,72,-1,1203.663003663,1.95970695970696,35.5420100982301
1743442296055,13:31:36.055,72,-1,1179.48717948718,1.95970695970696,35.5420100982301
1743442296075,13:31:36.075,72,-1,1146.52014652015,1.95824175824176,35.5420100982301
1743442296094,13:31:36.094,72,-1,1121.61172161172,1.95531135531136,35.5420100982301
1743442296114,13:31:36.114,72,-1,1098.1684981685,1.95384615384615,35.5420100982301
1743442296133,13:31:36.133,72,-1,1070.32967032967,1.95238095238095,35.5420100982301
1743442296153,13:31:36.153,72,-1,1048.35164835165,1.95091575091575,35.5420100982301
1743442296172,13:31:36.172,72,-1,1051.28205128205,1.94945054945055,35.5420100982301
1743442296192,13:31:36.192,72,-1,1066.66666666667,1.94798534798535,35.5420100982301
1743442296211,13:31:36.211,72,-1,1073.99267399267,1.94652014652015,35.5420100982301
1743442296231,13:31:36.231,72,-1,1073.99267399267,1.94505494505494,35.5420100982301
1743442296250,13:31:36.250,72,-1,1073.99267399267,1.94652014652015,35.5420100982301
1743442296270,13:31:36.270,72,-1,1073.26007326007,1.94505494505494,35.5420100982301
1743442296289,13:31:36.289,72,-1,1112.08791208791,1.95384615384615,35.5420100982301
1743442296309,13:31:36.309,72,-1,1191.94139194139,1.96117216117216,35.5420100982301
1743442296328,13:31:36.328,72,-1,1315.75091575092,1.95970695970696,35.5420100982301
1743442296348,13:31:36.348,72,-1,1462.27106227106,1.95970695970696,35.5420100982301
1743442296367,13:31:36.367,72,-1,1583.15018315018,1.95824175824176,35.5420100982301
1743442296387,13:31:36.387,72,-1,1658.60805860806,1.95531135531136,35.5420100982301
1743442296406,13:31:36.406,72,-1,1684.24908424908,1.95238095238095,35.5420100982301
1743442296426,13:31:36.426,72,-1,1677.65567765568,1.94945054945055,35.5420100982301
1743442296445,13:31:36.445,72,-1,1630.76923076923,1.94652014652015,35.5420100982301
1743442296465,13:31:36.465,72,-1,1576.55677655678,1.94652014652015,35.5420100982301
1743442296484,13:31:36.484,72,-1,1539.92673992674,1.94505494505494,35.5420100982301
1743442296504,13:31:36.504,72,-1,1502.5641025641,1.94505494505494,35.5420100982301
1743442296523,13:31:36.523,72,-1,1446.88644688645,1.94505494505494,35.5420100982301
1743442296543,13:31:36.543,72,-1,1366.30036630037,1.94652014652015,35.5420100982301
1743442296562,13:31:36.562,72,-1,1290.84249084249,1.94945054945055,35.5420100982301
1743442296582,13:31:36.582,72,-1,1235.89743589744,1.95238095238095,35.5420100982301
1743442296601,13:31:36.601,72,-1,1203.663003663,1.95824175824176,35.5420100982301
1743442296621,13:31:36.621,72,-1,1193.40659340659,1.96263736263736,35.5420100982301
1743442296640,13:31:36.640,72,-1,1197.0695970696,1.96703296703297,35.5470109720482
1743442296660,13:31:36.660,72,-1,1205.12820512821,1.96849816849817,35.5470109720482
1743442296679,13:31:36.679,72,-1,1206.59340659341,1.96996336996337,35.5470109720482
1743442296699,13:31:36.699,72,-1,1186.08058608059,1.97142857142857,35.5470109720482
1743442296718,13:31:36.718,72,-1,1136.99633699634,1.96996336996337,35.5470109720482
1743442296738,13:31:36.738,72,-1,1094.50549450549,1.96849816849817,35.5470109720482
1743442296757,13:31:36.757,72,-1,1063.00366300366,1.96703296703297,35.5470109720482
1743442296777,13:31:36.777,72,-1,1044.68864468864,1.96703296703297,35.5470109720482
1743442296796,13:31:36.796,72,-1,1044.68864468864,1.96849816849817,35.5470109720482
1743442296816,13:31:36.816,72,-1,1043.95604395604,1.96849816849817,35.5470109720482
1743442296835,13:31:36.835,72,-1,1038.82783882784,1.96703296703297,35.5470109720482
1743442296855,13:31:36.855,72,-1,1031.50183150183,1.96703296703297,35.5470109720482
1743442296874,13:31:36.874,72,-1,1026.37362637363,1.96556776556777,35.5470109720482
1743442296894,13:31:36.894,72,-1,1025.64102564103,1.96410256410256,35.5470109720482
1743442296913,13:31:36.913,72,-1,1035.16483516484,1.96263736263736,35.5470109720482
1743442296933,13:31:36.933,72,-1,1058.60805860806,1.96117216117216,35.5470109720482
1743442296952,13:31:36.952,72,-1,1093.77289377289,1.96556776556777,35.5470109720482
1743442296972,13:31:36.972,72,-1,1167.03296703297,1.96703296703297,35.5470109720482
1743442296991,13:31:36.991,72,-1,1280.58608058608,1.96703296703297,35.5470109720482
1743442297011,13:31:37.011,72,-1,1397.8021978022,1.96556776556777,35.5470109720482
1743442297030,13:31:37.030,72,-1,1498.9010989011,1.96410256410256,35.5470109720482
1743442297050,13:31:37.050,72,-1,1574.35897435897,1.96410256410256,35.5470109720482
1743442297069,13:31:37.069,72,-1,1628.57142857143,1.96263736263736,35.5470109720482
1743442297089,13:31:37.089,72,-1,1655.67765567766,1.96263736263736,35.5470109720482
1743442297108,13:31:37.108,72,-1,1660.07326007326,1.96117216117216,35.5470109720482
1743442297128,13:31:37.128,72,-1,1649.08424908425,1.96117216117216,35.5470109720482
1743442297147,13:31:37.147,72,-1,1630.76923076923,1.95970695970696,35.5470109720482
1743442297167,13:31:37.167,72,-1,1605.86080586081,1.95970695970696,35.5470109720482
1743442297186,13:31:37.186,72,-1,1567.76556776557,1.95970695970696,35.5470109720482
1743442297206,13:31:37.206,72,-1,1493.04029304029,1.95970695970696,35.5470109720482
1743442297225,13:31:37.225,72,-1,1387.54578754579,1.95970695970696,35.5470109720482
1743442297245,13:31:37.245,72,-1,1294.50549450549,1.95970695970696,35.5470109720482
1743442297264,13:31:37.264,72,-1,1227.10622710623,1.95970695970696,35.5470109720482
1743442297284,13:31:37.284,72,-1,1171.42857142857,1.95970695970696,35.5470109720482
1743442297303,13:31:37.303,72,-1,1106.95970695971,1.95824175824176,35.5470109720482
1743442297323,13:31:37.323,72,-1,1049.81684981685,1.95824175824176,35.5470109720482
1743442297342,13:31:37.342,72,-1,1017.58241758242,1.95970695970696,35.5470109720482
1743442297362,13:31:37.362,72,-1,1004.3956043956,1.95824175824176,35.5470109720482
1743442297381,13:31:37.381,72,-1,997.069597069597,1.95824175824176,35.5470109720482
1743442297401,13:31:37.401,73,-1,1000.7326007326,1.95677655677656,35.5470109720482
1743442297420,13:31:37.420,73,-1,1009.52380952381,1.95531135531136,35.5470109720482
1743442297440,13:31:37.440,73,-1,1005.12820512821,1.95531135531136,35.5470109720482
1743442297459,13:31:37.459,73,-1,989.010989010989,1.95531135531136,35.5470109720482
1743442297479,13:31:37.479,73,-1,978.754578754579,1.95384615384615,35.5470109720482
1743442297498,13:31:37.498,73,-1,976.556776556777,1.95384615384615,35.5470109720482
1743442297518,13:31:37.518,73,-1,979.487179487179,1.95531135531136,35.5470109720482
1743442297537,13:31:37.537,73,-1,982.417582417582,1.95384615384615,35.5470109720482
1743442297557,13:31:37.557,73,-1,978.021978021978,1.95384615384615,35.5470109720482
1743442297576,13:31:37.576,73,-1,970.695970695971,1.95238095238095,35.5470109720482
1743442297596,13:31:37.596,73,-1,969.230769230769,1.95238095238095,35.5470109720482
1743442297615,13:31:37.615,73,-1,1002.1978021978,1.95238095238095,35.5470109720482
1743442297635,13:31:37.635,73,-1,1061.53846153846,1.95091575091575,35.5420100982301
1743442297654,13:31:37.654,73,-1,1147.98534798535,1.95091575091575,35.5420100982301
1743442297674,13:31:37.674,73,-1,1245.42124542125,1.95091575091575,35.5420100982301
1743442297693,13:31:37.693,73,-1,1341.39194139194,1.95677655677656,35.5420100982301
1743442297713,13:31:37.713,73,-1,1419.04761904762,1.95824175824176,35.5420100982301
1743442297732,13:31:37.732,73,-1,1457.87545787546,1.95677655677656,35.5420100982301
1743442297752,13:31:37.752,73,-1,1449.81684981685,1.95677655677656,35.5420100982301
1743442297771,13:31:37.771,73,-1,1441.02564102564,1.95677655677656,35.5420100982301
1743442297791,13:31:37.791,73,-1,1412.45421245421,1.95677655677656,35.5420100982301
1743442297810,13:31:37.810,73,-1,1309.89010989011,1.95531135531136,35.5420100982301
1743442297830,13:31:37.830,73,-1,1169.23076923077,1.95384615384615,35.5420100982301
1743442297849,13:31:37.849,73,-1,1057.87545787546,1.95238095238095,35.5420100982301
1743442297869,13:31:37.869,73,-1,1000,1.95238095238095,35.5420100982301
1743442297888,13:31:37.888,73,-1,976.556776556777,1.95384615384615,35.5420100982301
1743442297908,13:31:37.908,73,-1,986.080586080586,1.95384615384615,35.5420100982301
1743442297927,13:31:37.927,73,-1,1019.78021978022,1.95531135531136,35.5420100982301
1743442297947,13:31:37.947,73,-1,1054.21245421245,1.95677655677656,35.5420100982301
1743442297966,13:31:37.966,73,-1,1087.17948717949,1.95824175824176,35.5420100982301
1743442297986,13:31:37.986,73,-1,1132.60073260073,1.96263736263736,35.5420100982301
1743442298005,13:31:38.005,73,-1,1176.55677655678,1.96556776556777,35.5420100982301
1743442298025,13:31:38.025,73,-1,1197.0695970696,1.96996336996337,35.5420100982301
1743442298044,13:31:38.044,73,-1,1192.67399267399,1.97289377289377,35.5420100982301
1743442298064,13:31:38.064,73,-1,1181.68498168498,1.97582417582418,35.5420100982301
1743442298083,13:31:38.083,73,-1,1171.42857142857,1.98168498168498,35.5420100982301
1743442298103,13:31:38.103,73,-1,1128.93772893773,1.98461538461538,35.5420100982301
1743442298122,13:31:38.122,73,-1,1078.38827838828,1.98754578754579,35.5420100982301
1743442298142,13:31:38.142,88,-1,1047.61904761905,1.99194139194139,35.5420100982301
1743442298161,13:31:38.161,88,-1,1016.11721611722,1.996336996337,35.5420100982301
1743442298181,13:31:38.181,88,-1,994.139194139194,1.9992673992674,35.5420100982301
1743442298200,13:31:38.200,88,-1,982.417582417582,2.0021978021978,35.5420100982301
1743442298220,13:31:38.220,88,-1,982.417582417582,2.00512820512821,35.5420100982301
1743442298239,13:31:38.239,88,-1,980.21978021978,2.00805860805861,35.5420100982301
1743442298259,13:31:38.259,88,-1,983.150183150183,2.00952380952381,35.5420100982301
1743442298278,13:31:38.278,88,-1,1002.9304029304,2.01098901098901,35.5420100982301
1743442298298,13:31:38.298,88,-1,1040.29304029304,2.01245421245421,35.5420100982301
1743442298317,13:31:38.317,88,-1,1065.93406593407,2.01098901098901,35.5420100982301
1743442298337,13:31:38.337,88,-1,1079.85347985348,2.01098901098901,35.5420100982301
1743442298356,13:31:38.356,88,-1,1095.2380952381,2.01098901098901,35.5420100982301
1743442298376,13:31:38.376,88,-1,1106.95970695971,2.01098901098901,35.5420100982301
1743442298395,13:31:38.395,88,-1,1120.14652014652,2.01245421245421,35.5420100982301
1743442298415,13:31:38.415,88,-1,1170.69597069597,2.01538461538462,35.5420100982301
1743442298434,13:31:38.434,88,-1,1266.66666666667,2.01831501831502,35.5420100982301
1743442298454,13:31:38.454,88,-1,1378.02197802198,2.01978021978022,35.5420100982301
1743442298473,13:31:38.473,88,-1,1490.10989010989,2.02417582417582,35.5420100982301
1743442298493,13:31:38.493,88,-1,1607.32600732601,2.02857142857143,35.5420100982301
1743442298512,13:31:38.512,88,-1,1672.52747252747,2.03003663003663,35.5420100982301
1743442298532,13:31:38.532,88,-1,1658.60805860806,2.03443223443223,35.5420100982301
1743442298551,13:31:38.551,88,-1,1593.40659340659,2.03589743589744,35.5420100982301
1743442298571,13:31:38.571,88,-1,1497.4358974359,2.03736263736264,35.5420100982301
1743442298590,13:31:38.590,88,-1,1411.72161172161,2.04029304029304,35.5420100982301
1743442298610,13:31:38.610,88,-1,1325.27472527473,2.04175824175824,35.5420100982301
1743442298629,13:31:38.629,88,-1,1221.24542124542,2.04468864468864,35.5420100982301
1743442298649,13:31:38.649,88,-1,1129.67032967033,2.04761904761905,35.5420100982301
1743442298668,13:31:38.668,88,-1,1023.44322344322,2.05201465201465,35.5420100982301
1743442298688,13:31:38.688,88,-1,918.681318681319,2.05347985347985,35.5420100982301
1743442298707,13:31:38.707,88,-1,837.362637362637,2.05641025641026,35.5420100982301
1743442298727,13:31:38.727,88,-1,785.347985347985,2.06080586080586,35.5420100982301
1743442298746,13:31:38.746,88,-1,756.776556776557,2.06813186813187,35.5420100982301
1743442298766,13:31:38.766,88,-1,771.428571428571,2.06520146520146,35.5420100982301
1743442298785,13:31:38.785,88,-1,826.373626373626,2.07252747252747,35.5420100982301
1743442298805,13:31:38.805,88,-1,913.553113553113,2.07692307692308,35.5420100982301
1743442298824,13:31:38.824,88,-1,1002.9304029304,2.08131868131868,35.5420100982301
1743442298844,13:31:38.844,88,-1,1110.62271062271,2.08424908424908,35.5420100982301
1743442298863,13:31:38.863,88,-1,1238.09523809524,2.09010989010989,35.5420100982301
1743442298883,13:31:38.883,88,-1,1357.50915750916,2.0974358974359,35.5420100982301
1743442298902,13:31:38.902,81,-1,1443.95604395604,2.1032967032967,35.5420100982301
1743442298922,13:31:38.922,81,-1,1491.57509157509,2.10915750915751,35.5420100982301
1743442298941,13:31:38.941,81,-1,1526.73992673993,2.11501831501831,35.5420100982301
1743442298961,13:31:38.961,81,-1,1560.43956043956,2.11648351648352,35.5420100982301
1743442298980,13:31:38.980,81,-1,1555.31135531136,2.11648351648352,35.5420100982301
1743442299000,13:31:39.000,81,-1,1530.40293040293,2.11648351648352,35.5420100982301
1743442299019,13:31:39.019,81,-1,1511.35531135531,2.11355311355311,35.5420100982301
1743442299039,13:31:39.039,81,-1,1501.0989010989,2.11648351648352,35.5420100982301
1743442299058,13:31:39.058,81,-1,1465.20146520146,2.11648351648352,35.5420100982301
1743442299078,13:31:39.078,81,-1,1420.51282051282,2.11648351648352,35.5420100982301
1743442299097,13:31:39.097,81,-1,1389.01098901099,2.12087912087912,35.5420100982301
1743442299117,13:31:39.117,81,-1,1324.54212454212,2.12234432234432,35.5420100982301
1743442299136,13:31:39.136,81,-1,1204.3956043956,2.12234432234432,35.5420100982301
1743442299156,13:31:39.156,81,-1,1100.3663003663,2.12380952380952,35.5420100982301
1743442299175,13:31:39.175,81,-1,1020.51282051282,2.12673992673993,35.5420100982301
1743442299195,13:31:39.195,81,-1,956.776556776557,2.12527472527472,35.5420100982301
1743442299214,13:31:39.214,81,-1,928.937728937729,2.11794871794872,35.5420100982301
1743442299234,13:31:39.234,81,-1,959.70695970696,2.11794871794872,35.5420100982301
1743442299253,13:31:39.253,81,-1,1035.89743589744,2.11794871794872,35.5420100982301
1743442299273,13:31:39.273,81,-1,1093.77289377289,2.11648351648352,35.5420100982301
1743442299292,13:31:39.292,81,-1,1155.31135531136,2.12087912087912,35.5420100982301
1743442299312,13:31:39.312,81,-1,1222.71062271062,2.12380952380952,35.5420100982301
1743442299331,13:31:39.331,81,-1,1261.53846153846,2.12967032967033,35.5420100982301
1743442299351,13:31:39.351,81,-1,1256.41025641026,2.13699633699634,35.5420100982301
1743442299370,13:31:39.370,81,-1,1237.36263736264,2.14432234432234,35.5420100982301
1743442299390,13:31:39.390,81,-1,1236.63003663004,2.15164835164835,35.5420100982301
1743442299409,13:31:39.409,81,-1,1224.17582417582,2.15897435897436,35.5420100982301
1743442299429,13:31:39.429,81,-1,1227.83882783883,2.16483516483516,35.5420100982301
1743442299448,13:31:39.448,81,-1,1254.21245421245,2.16923076923077,35.5420100982301
1743442299468,13:31:39.468,81,-1,1283.51648351648,2.17069597069597,35.5420100982301
1743442299487,13:31:39.487,81,-1,1304.7619047619,2.17362637362637,35.5420100982301
1743442299507,13:31:39.507,81,-1,1303.2967032967,2.17802197802198,35.5420100982301
1743442299526,13:31:39.526,81,-1,1290.84249084249,2.18388278388278,35.5420100982301
1743442299546,13:31:39.546,81,-1,1263.00366300366,2.19413919413919,35.5420100982301
1743442299565,13:31:39.565,81,-1,1284.24908424908,2.19267399267399,35.5420100982301
1743442299585,13:31:39.585,81,-1,1329.67032967033,2.1985347985348,35.5420100982301
1743442299604,13:31:39.604,81,-1,1360.43956043956,2.20586080586081,35.5420100982301
1743442299624,13:31:39.624,81,-1,1383.15018315018,2.21465201465201,35.5470109720482
1743442299643,13:31:39.643,81,-1,1421.24542124542,2.22930402930403,35.5470109720482
1743442299663,13:31:39.663,79,-1,1454.94505494505,2.24102564102564,35.5470109720482
1743442299682,13:31:39.682,79,-1,1480.58608058608,2.24835164835165,35.5470109720482
1743442299702,13:31:39.702,79,-1,1497.4358974359,2.25860805860806,35.5470109720482
1743442299721,13:31:39.721,79,-1,1499.6336996337,2.27326007326007,35.5470109720482
1743442299741,13:31:39.741,79,-1,1509.15750915751,2.28351648351648,35.5470109720482
1743442299760,13:31:39.760,79,-1,1509.89010989011,2.28498168498168,35.5470109720482
1743442299780,13:31:39.780,79,-1,1495.2380952381,2.28498168498168,35.5470109720482
1743442299799,13:31:39.799,79,-1,1483.51648351648,2.29084249084249,35.5470109720482
1743442299819,13:31:39.819,79,-1,1460.80586080586,2.2952380952381,35.5470109720482
1743442299838,13:31:39.838,79,-1,1422.71062271062,2.2996336996337,35.5470109720482
1743442299858,13:31:39.858,79,-1,1378.02197802198,2.30549450549451,35.5470109720482
1743442299877,13:31:39.877,79,-1,1332.60073260073,2.30989010989011,35.5470109720482
1743442299897,13:31:39.897,79,-1,1283.51648351648,2.31428571428571,35.5470109720482
1743442299916,13:31:39.916,79,-1,1241.02564102564,2.31868131868132,35.5470109720482
1743442299936,13:31:39.936,79,-1,1202.9304029304,2.32454212454212,35.5470109720482
1743442299955,13:31:39.955,79,-1,1165.56776556777,2.33040293040293,35.5470109720482
1743442299975,13:31:39.975,79,-1,1134.06593406593,2.33919413919414,35.5470109720482
1743442299994,13:31:39.994,79,-1,1135.53113553114,2.35238095238095,35.5470109720482
1743442300014,13:31:40.014,79,-1,1196.336996337,2.35970695970696,35.5470109720482
1743442300033,13:31:40.033,79,-1,1322.34432234432,2.35970695970696,35.5470109720482
1743442300053,13:31:40.053,79,-1,1527.47252747253,2.37142857142857,35.5470109720482
1743442300072,13:31:40.072,79,-1,1780.21978021978,2.36996336996337,35.5470109720482
1743442300092,13:31:40.092,79,-1,1884.98168498168,2.35677655677656,35.5470109720482
1743442300111,13:31:40.111,79,-1,1761.17216117216,2.35824175824176,35.5470109720482
1743442300131,13:31:40.131,79,-1,1583.88278388278,2.36117216117216,35.5470109720482
1743442300150,13:31:40.150,79,-1,1492.30769230769,2.36263736263736,35.5470109720482
1743442300170,13:31:40.170,79,-1,1497.4358974359,2.36849816849817,35.5470109720482
1743442300189,13:31:40.189,79,-1,1496.7032967033,2.37875457875458,35.5470109720482
1743442300209,13:31:40.209,79,-1,1449.81684981685,2.38461538461538,35.5470109720482
1743442300228,13:31:40.228,79,-1,1393.40659340659,2.38754578754579,35.5470109720482
1743442300248,13:31:40.248,79,-1,1367.03296703297,2.39047619047619,35.5470109720482
1743442300267,13:31:40.267,79,-1,1357.50915750916,2.39340659340659,35.5470109720482
1743442300287,13:31:40.287,79,-1,1359.70695970696,2.3992673992674,35.5470109720482
1743442300306,13:31:40.306,79,-1,1367.03296703297,2.40512820512821,35.5470109720482
1743442300326,13:31:40.326,79,-1,1378.75457875458,2.40952380952381,35.5470109720482
1743442300345,13:31:40.345,79,-1,1386.08058608059,2.41098901098901,35.5470109720482
1743442300365,13:31:40.365,79,-1,1375.82417582418,2.41098901098901,35.5470109720482
1743442300384,13:31:40.384,79,-1,1356.77655677656,2.40805860805861,35.5470109720482
1743442300404,13:31:40.404,79,-1,1346.52014652015,2.40512820512821,35.5470109720482
1743442300423,13:31:40.423,79,-1,1348.71794871795,2.3978021978022,35.5470109720482
1743442300443,13:31:40.443,79,-1,1369.23076923077,2.38461538461538,35.5470109720482
1743442300462,13:31:40.462,79,-1,1352.38095238095,2.3978021978022,35.5470109720482
1743442300482,13:31:40.482,79,-1,1205.12820512821,2.3978021978022,35.5470109720482
1743442300501,13:31:40.501,79,-1,999.267399267399,2.38168498168498,35.5470109720482
1743442300521,13:31:40.521,79,-1,865.201465201465,2.37728937728938,35.5470109720482
1743442300540,13:31:40.540,79,-1,801.465201465201,2.37728937728938,35.5470109720482
1743442300560,13:31:40.560,79,-1,685.714285714286,2.38608058608059,35.5470109720482
1743442300579,13:31:40.579,79,-1,652.747252747253,2.41684981684982,35.5470109720482
1743442300599,13:31:40.599,79,-1,750.915750915751,2.42710622710623,35.5470109720482
1743442300618,13:31:40.618,79,-1,873.992673992674,2.43003663003663,35.5370092185913
1743442300638,13:31:40.638,79,-1,978.754578754579,2.43150183150183,35.5370092185913
1743442300657,13:31:40.657,79,-1,1093.04029304029,2.43443223443223,35.5370092185913
1743442300677,13:31:40.677,79,-1,1304.7619047619,2.44175824175824,35.5370092185913
1743442300696,13:31:40.696,79,-1,1647.61904761905,2.44908424908425,35.5370092185913
1743442300716,13:31:40.716,79,-1,1936.26373626374,2.45054945054945,35.5370092185913
1743442300735,13:31:40.735,79,-1,2046.15384615385,2.44761904761905,35.5370092185913
1743442300755,13:31:40.755,79,-1,1972.89377289377,2.44468864468864,35.5370092185913
1743442300774,13:31:40.774,79,-1,1818.31501831502,2.43296703296703,35.5370092185913
1743442300794,13:31:40.794,79,-1,1690.84249084249,2.42857142857143,35.5370092185913
1743442300813,13:31:40.813,79,-1,1630.76923076923,2.42124542124542,35.5370092185913
1743442300833,13:31:40.833,79,-1,1615.38461538462,2.41684981684982,35.5370092185913
1743442300852,13:31:40.852,79,-1,1556.77655677656,2.41538461538462,35.5370092185913
1743442300872,13:31:40.872,79,-1,1436.63003663004,2.41245421245421,35.5370092185913
1743442300891,13:31:40.891,79,-1,1254.94505494505,2.40659340659341,35.5370092185913
1743442300911,13:31:40.911,79,-1,1073.26007326007,2.40659340659341,35.5370092185913
1743442300930,13:31:40.930,79,-1,1041.02564102564,2.41978021978022,35.5370092185913
1743442300950,13:31:40.950,79,-1,1098.9010989011,2.42564102564103,35.5370092185913
1743442300969,13:31:40.969,79,-1,1158.97435897436,2.43589743589744,35.5370092185913
1743442300989,13:31:40.989,79,-1,1221.97802197802,2.45934065934066,35.5370092185913
1743442301008,13:31:41.008,79,-1,1291.57509157509,2.47985347985348,35.5370092185913
1743442301028,13:31:41.028,88,-1,1335.53113553114,2.48278388278388,35.5370092185913
1743442301047,13:31:41.047,88,-1,1339.19413919414,2.48278388278388,35.5370092185913
1743442301067,13:31:41.067,88,-1,1310.62271062271,2.48864468864469,35.5370092185913
1743442301086,13:31:41.086,88,-1,1298.1684981685,2.5032967032967,35.5370092185913
1743442301106,13:31:41.106,88,-1,1280.58608058608,2.50769230769231,35.5370092185913
1743442301125,13:31:41.125,88,-1,1282.78388278388,2.51208791208791,35.5370092185913
1743442301145,13:31:41.145,88,-1,1314.28571428571,2.51062271062271,35.5370092185913
1743442301164,13:31:41.164,88,-1,1375.09157509157,2.51355311355311,35.5370092185913
1743442301184,13:31:41.184,88,-1,1457.14285714286,2.52087912087912,35.5370092185913
1743442301203,13:31:41.203,88,-1,1554.57875457875,2.52527472527472,35.5370092185913
1743442301223,13:31:41.223,88,-1,1642.49084249084,2.52673992673993,35.5370092185913
1743442301242,13:31:41.242,88,-1,1708.42490842491,2.52527472527472,35.5370092185913
1743442301262,13:31:41.262,88,-1,1731.13553113553,2.53406593406593,35.5370092185913
1743442301281,13:31:41.281,88,-1,1735.53113553114,2.53406593406593,35.5370092185913
1743442301301,13:31:41.301,88,-1,1720.14652014652,2.52527472527472,35.5370092185913
1743442301320,13:31:41.320,88,-1,1704.7619047619,2.53699633699634,35.5370092185913
1743442301340,13:31:41.340,88,-1,1667.39926739927,2.54285714285714,35.5370092185913
1743442301359,13:31:41.359,88,-1,1604.3956043956,2.54432234432234,35.5370092185913
1743442301379,13:31:41.379,88,-1,1539.19413919414,2.54432234432234,35.5370092185913
1743442301398,13:31:41.398,88,-1,1443.22344322344,2.54285714285714,35.5370092185913
1743442301418,13:31:41.418,88,-1,1355.31135531136,2.53992673992674,35.5370092185913
1743442301437,13:31:41.437,88,-1,1328.93772893773,2.53406593406593,35.5370092185913
1743442301457,13:31:41.457,88,-1,1356.04395604396,2.52673992673993,35.5370092185913
1743442301476,13:31:41.476,88,-1,1364.83516483516,2.51941391941392,35.5370092185913
1743442301496,13:31:41.496,88,-1,1327.47252747253,2.51355311355311,35.5370092185913
1743442301515,13:31:41.515,88,-1,1260.80586080586,2.5047619047619,35.5370092185913
1743442301535,13:31:41.535,88,-1,1220.51282051282,2.5032967032967,35.5370092185913
1743442301554,13:31:41.554,88,-1,1230.76923076923,2.5032967032967,35.5370092185913
1743442301574,13:31:41.574,88,-1,1286.44688644689,2.5018315018315,35.5370092185913
1743442301593,13:31:41.593,88,-1,1325.27472527473,2.5047619047619,35.5370092185913
1743442301613,13:31:41.613,88,-1,1328.93772893773,2.50769230769231,35.5370092185913
1743442301632,13:31:41.632,88,-1,1340.65934065934,2.51208791208791,35.5370092185913
1743442301652,13:31:41.652,88,-1,1364.83516483516,2.52820512820513,35.5370092185913
1743442301671,13:31:41.671,88,-1,1385.34798534799,2.53699633699634,35.5370092185913
1743442301691,13:31:41.691,88,-1,1381.68498168498,2.55457875457875,35.5370092185913
1743442301710,13:31:41.710,88,-1,1346.52014652015,2.57216117216117,35.5370092185913
1743442301730,13:31:41.730,88,-1,1317.94871794872,2.58241758241758,35.5370092185913
1743442301749,13:31:41.749,88,-1,1309.15750915751,2.59120879120879,35.5370092185913
1743442301769,13:31:41.769,88,-1,1309.89010989011,2.5956043956044,35.5370092185913
1743442301788,13:31:41.788,88,-1,1316.48351648352,2.63663003663004,35.5370092185913
1743442301808,13:31:41.808,88,-1,1317.21611721612,2.67765567765568,35.5370092185913
1743442301827,13:31:41.827,88,-1,1320.14652014652,2.68791208791209,35.5370092185913
1743442301847,13:31:41.847,88,-1,1339.19413919414,2.67912087912088,35.5370092185913
1743442301866,13:31:41.866,88,-1,1383.15018315018,2.67179487179487,35.5370092185913
1743442301886,13:31:41.886,88,-1,1482.05128205128,2.67326007326007,35.5370092185913
1743442301905,13:31:41.905,88,-1,1614.65201465201,2.68058608058608,35.5370092185913
1743442301925,13:31:41.925,88,-1,1748.71794871795,2.68498168498168,35.5370092185913
1743442301944,13:31:41.944,88,-1,1868.86446886447,2.68644688644689,35.5370092185913
1743442301964,13:31:41.964,88,-1,1953.84615384615,2.68351648351648,35.5370092185913
1743442301983,13:31:41.983,88,-1,1991.20879120879,2.68205128205128,35.5370092185913
1743442302003,13:31:42.003,88,-1,1982.41758241758,2.67619047619048,35.5370092185913
1743442302022,13:31:42.022,88,-1,1941.39194139194,2.66446886446886,35.5370092185913
1743442302042,13:31:42.042,88,-1,1899.6336996337,2.65567765567766,35.5370092185913
1743442302061,13:31:42.061,88,-1,1851.28205128205,2.64981684981685,35.5370092185913
1743442302081,13:31:42.081,88,-1,1786.81318681319,2.64688644688645,35.5370092185913
1743442302100,13:31:42.100,88,-1,1704.7619047619,2.63956043956044,35.5370092185913
1743442302120,13:31:42.120,88,-1,1603.663003663,2.63369963369963,35.5370092185913
1743442302139,13:31:42.139,88,-1,1523.80952380952,2.62637362637363,35.5370092185913
1743442302159,13:31:42.159,88,-1,1484.98168498168,2.62783882783883,35.5370092185913
1743442302178,13:31:42.178,88,-1,1520.87912087912,2.63076923076923,35.5370092185913
1743442302198,13:31:42.198,88,-1,1669.59706959707,2.64835164835165,35.5370092185913
1743442302217,13:31:42.217,88,-1,1848.35164835165,2.66153846153846,35.5370092185913
1743442302237,13:31:42.237,88,-1,1944.32234432234,2.63516483516484,35.5370092185913
1743442302256,13:31:42.256,88,-1,1847.61904761905,2.62783882783883,35.5370092185913
1743442302276,13:31:42.276,88,-1,1676.92307692308,2.63516483516484,35.5370092185913
1743442302295,13:31:42.295,88,-1,1580.21978021978,2.63369963369963,35.5370092185913
1743442302315,13:31:42.315,88,-1,1540.65934065934,2.63369963369963,35.5370092185913
1743442302334,13:31:42.334,88,-1,1497.4358974359,2.63076923076923,35.5370092185913
1743442302354,13:31:42.354,88,-1,1420.51282051282,2.62197802197802,35.5370092185913
1743442302373,13:31:42.373,88,-1,1338.46153846154,2.61172161172161,35.5370092185913
1743442302393,13:31:42.393,88,-1,1275.45787545788,2.5970695970696,35.5370092185913
1743442302412,13:31:42.412,88,-1,1238.82783882784,2.58534798534799,35.5370092185913
1743442302432,13:31:42.432,88,-1,1234.43223443223,2.57802197802198,35.5370092185913
1743442302451,13:31:42.451,93,-1,1308.42490842491,2.57362637362637,35.5370092185913
1743442302471,13:31:42.471,93,-1,1454.21245421245,2.56776556776557,35.5370092185913
1743442302490,13:31:42.490,93,-1,1651.28205128205,2.55897435897436,35.5370092185913
1743442302510,13:31:42.510,93,-1,1860.07326007326,2.54725274725275,35.5370092185913
1743442302529,13:31:42.529,93,-1,2024.90842490842,2.53260073260073,35.5370092185913
1743442302549,13:31:42.549,93,-1,2126.73992673993,2.51208791208791,35.5370092185913
1743442302569,13:31:42.568,93,-1,2167.76556776557,2.47692307692308,35.5370092185913
1743442302588,13:31:42.588,93,-1,2142.85714285714,2.50769230769231,35.5370092185913
1743442302608,13:31:42.607,93,-1,1994.13919413919,2.51648351648352,35.5370092185913
1743442302627,13:31:42.627,93,-1,1805.86080586081,2.51941391941392,35.5370092185913
1743442302647,13:31:42.646,93,-1,1648.35164835165,2.52380952380952,35.5370092185913
1743442302666,13:31:42.666,93,-1,1460.80586080586,2.51794871794872,35.5370092185913
1743442302686,13:31:42.686,93,-1,1233.69963369963,2.50915750915751,35.5370092185913
1743442302705,13:31:42.705,93,-1,1026.37362637363,2.4989010989011,35.5370092185913
1743442302725,13:31:42.725,93,-1,781.684981684982,2.47985347985348,35.5370092185913
1743442302744,13:31:42.744,93,-1,0,2.46959706959707,35.5370092185913
1743442302764,13:31:42.764,93,-1,0,2.48864468864469,35.5370092185913
1743442302783,13:31:42.783,93,-1,0,2.51501831501831,35.5370092185913
1743442302803,13:31:42.803,93,-1,0,2.50915750915751,35.5370092185913
1743442302822,13:31:42.822,93,-1,0,2.5003663003663,35.5370092185913
1743442302842,13:31:42.842,93,-1,0,2.5003663003663,35.5370092185913
1743442302861,13:31:42.861,93,-1,0,2.5047619047619,35.5370092185913
1743442302881,13:31:42.881,93,-1,0,2.50915750915751,35.5370092185913
1743442302900,13:31:42.900,-1,-1,0,2.50915750915751,35.5370092185913
1743442302920,13:31:42.920,-1,-1,0,2.5032967032967,35.5370092185913
1743442302939,13:31:42.939,-1,-1,0,2.4959706959707,35.5370092185913
1743442302959,13:31:42.959,-1,-1,73.2600732600733,2.49010989010989,35.5370092185913
1743442302978,13:31:42.978,-1,-1,567.032967032967,2.49010989010989,35.5370092185913
1743442302998,13:31:42.998,-1,-1,973.626373626374,2.5003663003663,35.5370092185913
1743442303017,13:31:43.017,-1,-1,1231.50183150183,2.50915750915751,35.5370092185913
1743442303037,13:31:43.037,-1,-1,1449.08424908425,2.50622710622711,35.5370092185913
1743442303056,13:31:43.056,-1,-1,1640.29304029304,2.5003663003663,35.5370092185913
1743442303076,13:31:43.076,-1,-1,1764.83516483516,2.49450549450549,35.5370092185913
1743442303095,13:31:43.095,-1,-1,1856.41025641026,2.48571428571429,35.5370092185913
1743442303115,13:31:43.115,-1,-1,1904.0293040293,2.47692307692308,35.5370092185913
1743442303134,13:31:43.134,-1,-1,1927.47252747253,2.46959706959707,35.5370092185913
1743442303154,13:31:43.154,-1,-1,1936.26373626374,2.46227106227106,35.5370092185913
1743442303173,13:31:43.173,-1,-1,1944.32234432234,2.46666666666667,35.5370092185913
1743442303193,13:31:43.193,-1,-1,1936.99633699634,2.47106227106227,35.5370092185913
1743442303212,13:31:43.212,-1,-1,1929.67032967033,2.47106227106227,35.5370092185913
1743442303232,13:31:43.232,-1,-1,1915.75091575092,2.46520146520146,35.5370092185913
1743442303251,13:31:43.251,-1,-1,1863.00366300366,2.45934065934066,35.5370092185913
1743442303271,13:31:43.271,-1,-1,1784.61538461538,2.45494505494505,35.5370092185913
1743442303290,13:31:43.290,-1,-1,1690.84249084249,2.46666666666667,35.5370092185913
1743442303310,13:31:43.310,-1,-1,1589.74358974359,2.46813186813187,35.5370092185913
1743442303329,13:31:43.329,-1,-1,1482.78388278388,2.44468864468864,35.5370092185913
1743442303349,13:31:43.349,-1,-1,1381.68498168498,2.42271062271062,35.5370092185913
1743442303368,13:31:43.368,-1,-1,1319.41391941392,2.40952380952381,35.5370092185913
1743442303388,13:31:43.388,-1,-1,1309.89010989011,2.39340659340659,35.5370092185913
1743442303407,13:31:43.407,-1,-1,1330.40293040293,2.34652014652015,35.5370092185913
1743442303427,13:31:43.427,-1,-1,1352.38095238095,2.32893772893773,35.5370092185913
1743442303446,13:31:43.446,-1,-1,1367.76556776557,2.32014652014652,35.5370092185913
1743442303466,13:31:43.466,-1,-1,1314.28571428571,2.31282051282051,35.5370092185913
1743442303485,13:31:43.485,-1,-1,1262.27106227106,2.30842490842491,35.5370092185913
1743442303505,13:31:43.505,-1,-1,1243.95604395604,2.2996336996337,35.5370092185913
1743442303524,13:31:43.524,-1,-1,1281.31868131868,2.3010989010989,35.5370092185913
1743442303544,13:31:43.544,-1,-1,1362.63736263736,2.30549450549451,35.5370092185913
1743442303563,13:31:43.563,-1,-1,1397.0695970696,2.2996336996337,35.5370092185913
1743442303583,13:31:43.583,-1,-1,1384.61538461538,2.29377289377289,35.5370092185913
1743442303602,13:31:43.602,-1,-1,1423.44322344322,2.2981684981685,35.5320083331317
1743442303622,13:31:43.622,-1,-1,1552.38095238095,2.2996336996337,35.5320083331317
1743442303641,13:31:43.641,-1,-1,1725.27472527473,2.2952380952381,35.5320083331317
1743442303661,13:31:43.661,-1,-1,1902.5641025641,2.2952380952381,35.5320083331317
1743442303680,13:31:43.680,-1,-1,2040.29304029304,2.30695970695971,35.5320083331317
1743442303700,13:31:43.700,-1,-1,2120.87912087912,2.3025641025641,35.5320083331317
1743442303719,13:31:43.719,-1,-1,2150.18315018315,2.2981684981685,35.5320083331317
1743442303739,13:31:43.739,-1,-1,2139.19413919414,2.2952380952381,35.5320083331317
1743442303758,13:31:43.758,-1,-1,2109.15750915751,2.29377289377289,35.5320083331317
1743442303778,13:31:43.778,-1,-1,2033.69963369963,2.2952380952381,35.5320083331317
1743442303797,13:31:43.797,-1,-1,1940.65934065934,2.2967032967033,35.5320083331317
1743442303817,13:31:43.817,-1,-1,1898.9010989011,2.2967032967033,35.5320083331317
1743442303836,13:31:43.836,-1,-1,1879.12087912088,2.3010989010989,35.5320083331317
1743442303856,13:31:43.856,-1,-1,1853.47985347985,2.3025641025641,35.5320083331317
1743442303875,13:31:43.875,-1,-1,1801.4652014652,2.30549450549451,35.5320083331317
1743442303895,13:31:43.895,-1,-1,1760.43956043956,2.30842490842491,35.5320083331317
1743442303914,13:31:43.914,-1,-1,1744.32234432234,2.30989010989011,35.5320083331317
1743442303934,13:31:43.934,-1,-1,1709.15750915751,2.30989010989011,35.5320083331317
1743442303953,13:31:43.953,-1,-1,1636.63003663004,2.30989010989011,35.5320083331317
1743442303973,13:31:43.973,-1,-1,1528.20512820513,2.30989010989011,35.5320083331317
1743442303992,13:31:43.992,-1,-1,1367.76556776557,2.31282051282051,35.5320083331317
1743442304012,13:31:44.012,-1,-1,1226.37362637363,2.31868131868132,35.5320083331317
1743442304031,13:31:44.031,-1,-1,1210.25641025641,2.33333333333333,35.5320083331317
1743442304051,13:31:44.051,-1,-1,1252.01465201465,2.34358974358974,35.5320083331317
1743442304070,13:31:44.070,-1,-1,1309.15750915751,2.36117216117216,35.5320083331317
1743442304090,13:31:44.090,-1,-1,1400,2.37435897435897,35.5320083331317
1743442304109,13:31:44.109,-1,-1,1517.94871794872,2.38608058608059,35.5320083331317
1743442304129,13:31:44.129,-1,-1,1652.01465201465,2.40512820512821,35.5320083331317
1743442304148,13:31:44.148,-1,-1,1739.19413919414,2.3992673992674,35.5320083331317
1743442304168,13:31:44.168,-1,-1,1805.86080586081,2.39047619047619,35.5320083331317
1743442304187,13:31:44.187,-1,-1,1934.06593406593,2.38754578754579,35.5320083331317
1743442304207,13:31:44.207,-1,-1,2130.40293040293,2.40512820512821,35.5320083331317
1743442304226,13:31:44.226,-1,-1,2347.25274725275,2.41098901098901,35.5320083331317
1743442304246,13:31:44.246,-1,-1,2512.08791208791,2.403663003663,35.5320083331317
1743442304265,13:31:44.265,-1,-1,2559.70695970696,2.39487179487179,35.5320083331317
1743442304285,13:31:44.285,-1,-1,2520.14652014652,2.38608058608059,35.5320083331317
1743442304304,13:31:44.304,-1,-1,2453.47985347985,2.38315018315018,35.5320083331317
1743442304324,13:31:44.324,-1,-1,2363.36996336996,2.37435897435897,35.5320083331317
1743442304343,13:31:44.343,-1,-1,2235.16483516484,2.36263736263736,35.5320083331317
1743442304363,13:31:44.363,-1,-1,2125.27472527472,2.35384615384615,35.5320083331317
1743442304382,13:31:44.382,-1,-1,2030.76923076923,2.34505494505494,35.5320083331317
1743442304402,13:31:44.402,-1,-1,1920.14652014652,2.34505494505494,35.5320083331317
1743442304421,13:31:44.421,-1,-1,1781.68498168498,2.35238095238095,35.5320083331317
1743442304441,13:31:44.441,-1,-1,1663.73626373626,2.34945054945055,35.5320083331317
1743442304460,13:31:44.460,-1,-1,1593.40659340659,2.33919413919414,35.5320083331317
1743442304480,13:31:44.480,-1,-1,1564.83516483516,2.31575091575092,35.5320083331317
1743442304499,13:31:44.499,-1,-1,1579.48717948718,2.32747252747253,35.5320083331317
1743442304519,13:31:44.519,-1,-1,1498.1684981685,2.33772893772894,35.5320083331317
1743442304538,13:31:44.538,-1,-1,1313.55311355311,2.33186813186813,35.5320083331317
1743442304558,13:31:44.558,-1,-1,1127.47252747253,2.31721611721612,35.5320083331317
1743442304577,13:31:44.577,-1,-1,969.96336996337,2.3025641025641,35.5320083331317
1743442304597,13:31:44.597,-1,-1,783.150183150183,2.29377289377289,35.5320083331317
1743442304616,13:31:44.616,-1,-1,625.641025641026,2.28937728937729,35.5320083331317
1743442304636,13:31:44.636,-1,-1,521.611721611722,2.27619047619048,35.5320083331317
1743442304655,13:31:44.655,-1,-1,500.3663003663,2.27472527472527,35.5320083331317
1743442304675,13:31:44.675,-1,-1,540.659340659341,2.26739926739927,35.5320083331317
1743442304694,13:31:44.694,-1,-1,548.717948717949,2.25567765567766,35.5320083331317
1743442304714,13:31:44.714,-1,-1,586.813186813187,2.26300366300366,35.5320083331317
1743442304733,13:31:44.733,-1,-1,720.879120879121,2.27179487179487,35.5320083331317
1743442304753,13:31:44.753,-1,-1,924.542124542124,2.27472527472527,35.5320083331317
1743442304772,13:31:44.772,-1,-1,1159.70695970696,2.27765567765568,35.5320083331317
1743442304792,13:31:44.792,-1,-1,1412.45421245421,2.27472527472527,35.5320083331317
1743442304811,13:31:44.811,-1,-1,1696.7032967033,2.26886446886447,35.5320083331317
1743442304831,13:31:44.831,-1,-1,1997.8021978022,2.26593406593407,35.5320083331317
1743442304850,13:31:44.850,-1,-1,2278.38827838828,2.26007326007326,35.5320083331317
1743442304870,13:31:44.870,-1,-1,2482.78388278388,2.25274725274725,35.5320083331317
1743442304889,13:31:44.889,-1,-1,2555.31135531136,2.24395604395604,35.5320083331317
1743442304909,13:31:44.909,-1,-1,2463.73626373626,2.23369963369963,35.5320083331317
1743442304928,13:31:44.928,-1,-1,2218.31501831502,2.22637362637363,35.5320083331317
1743442304948,13:31:44.948,-1,-1,1905.49450549451,2.21904761904762,35.5320083331317
1743442304967,13:31:44.967,-1,-1,1644.68864468864,2.20879120879121,35.5320083331317
1743442304987,13:31:44.987,-1,-1,1464.46886446886,2.19560439560439,35.5320083331317
1743442305006,13:31:45.006,-1,-1,1316.48351648352,2.18388278388278,35.5320083331317
1743442305026,13:31:45.026,-1,-1,1208.05860805861,2.17509157509157,35.5320083331317
1743442305045,13:31:45.045,-1,-1,1134.06593406593,2.16923076923077,35.5320083331317
1743442305065,13:31:45.065,-1,-1,1057.87545787546,2.16630036630037,35.5320083331317
1743442305084,13:31:45.084,-1,-1,972.161172161172,2.16190476190476,35.5320083331317
1743442305104,13:31:45.104,-1,-1,895.238095238095,2.15457875457875,35.5320083331317
1743442305123,13:31:45.123,-1,-1,857.142857142857,2.14285714285714,35.5320083331317
1743442305143,13:31:45.143,-1,-1,854.945054945055,2.13553113553114,35.5320083331317
1743442305162,13:31:45.162,-1,-1,884.981684981685,2.12967032967033,35.5320083331317
1743442305182,13:31:45.182,-1,-1,916.483516483516,2.12673992673993,35.5320083331317
1743442305201,13:31:45.201,-1,-1,957.509157509157,2.12087912087912,35.5320083331317
1743442305221,13:31:45.221,-1,-1,997.802197802198,2.11794871794872,35.5320083331317
1743442305240,13:31:45.240,-1,-1,1026.37362637363,2.11648351648352,35.5320083331317
1743442305260,13:31:45.260,-1,-1,1049.08424908425,2.11794871794872,35.5320083331317
1743442305279,13:31:45.279,-1,-1,1077.65567765568,2.11648351648352,35.5320083331317
1743442305299,13:31:45.299,-1,-1,1106.22710622711,2.11648351648352,35.5320083331317
1743442305318,13:31:45.318,-1,-1,1205.86080586081,2.11208791208791,35.5320083331317
1743442305338,13:31:45.338,-1,-1,1409.52380952381,2.10915750915751,35.5320083331317
1743442305357,13:31:45.357,-1,-1,1680.58608058608,2.10915750915751,35.5320083331317
1743442305377,13:31:45.377,-1,-1,1922.34432234432,2.11062271062271,35.5320083331317
1743442305396,13:31:45.396,-1,-1,2077.65567765568,2.10622710622711,35.5320083331317
1743442305416,13:31:45.416,-1,-1,2173.62637362637,2.1003663003663,35.5320083331317
1743442305435,13:31:45.435,-1,-1,2212.45421245421,2.0974358974359,35.5320083331317
1743442305455,13:31:45.455,-1,-1,2179.48717948718,2.1003663003663,35.5320083331317
1743442305474,13:31:45.474,-1,-1,2095.9706959707,2.1003663003663,35.5320083331317
1743442305494,13:31:45.494,-1,-1,1979.48717948718,2.1003663003663,35.5320083331317
1743442305513,13:31:45.513,-1,-1,1848.35164835165,2.1047619047619,35.5320083331317
1743442305533,13:31:45.533,-1,-1,1739.19413919414,2.11062271062271,35.5320083331317
1743442305552,13:31:45.552,-1,-1,1654.21245421245,2.12673992673993,35.5320083331317
1743442305572,13:31:45.572,-1,-1,1581.68498168498,2.13260073260073,35.5320083331317
1743442305591,13:31:45.591,-1,-1,1514.28571428571,2.13260073260073,35.5320083331317
1743442305611,13:31:45.611,-1,-1,1431.50183150183,2.12967032967033,35.5320083331317
1743442305630,13:31:45.630,-1,-1,1392.67399267399,2.12820512820513,35.5320083331317
1743442305650,13:31:45.650,-1,-1,1378.02197802198,2.12967032967033,35.5320083331317
1743442305669,13:31:45.669,-1,-1,1365.56776556777,2.12967032967033,35.5320083331317
1743442305689,13:31:45.689,-1,-1,1342.12454212454,2.12967032967033,35.5320083331317
1743442305708,13:31:45.708,-1,-1,1300.3663003663,2.12820512820513,35.5320083331317
1743442305728,13:31:45.728,-1,-1,1249.81684981685,2.12380952380952,35.5320083331317
1743442305747,13:31:45.747,-1,-1,1205.86080586081,2.11941391941392,35.5320083331317
1743442305767,13:31:45.767,-1,-1,1194.13919413919,2.11794871794872,35.5320083331317
1743442305786,13:31:45.786,-1,-1,1196.336996337,2.11941391941392,35.5320083331317
1743442305806,13:31:45.806,-1,-1,1187.54578754579,2.11941391941392,35.5320083331317
1743442305825,13:31:45.825,-1,-1,1175.09157509158,2.12234432234432,35.5320083331317
1743442305845,13:31:45.845,-1,-1,1172.89377289377,2.11648351648352,35.5320083331317
1743442305864,13:31:45.864,-1,-1,1232.96703296703,2.11062271062271,35.5320083331317
1743442305884,13:31:45.884,-1,-1,1353.11355311355,2.11208791208791,35.5320083331317
1743442305903,13:31:45.903,-1,-1,1529.67032967033,2.10915750915751,35.5320083331317
1743442305923,13:31:45.923,-1,-1,1706.22710622711,2.10769230769231,35.5320083331317
1743442305942,13:31:45.942,-1,-1,1852.74725274725,2.12527472527472,35.5320083331317
1743442305962,13:31:45.962,-1,-1,1965.56776556777,2.13113553113553,35.5320083331317
1743442305981,13:31:45.981,-1,-1,2041.75824175824,2.13699633699634,35.5320083331317
1743442306001,13:31:46.001,-1,-1,2071.79487179487,2.14871794871795,35.5320083331317
1743442306020,13:31:46.020,-1,-1,2063.00366300366,2.16630036630037,35.5320083331317
1743442306040,13:31:46.040,-1,-1,2023.44322344322,2.15604395604396,35.5320083331317
1743442306059,13:31:46.059,-1,-1,1934.79853479853,2.13260073260073,35.5320083331317
1743442306079,13:31:46.079,-1,-1,1797.0695970696,2.11501831501831,35.5320083331317
1743442306098,13:31:46.098,-1,-1,1631.50183150183,2.0974358974359,35.5320083331317
1743442306118,13:31:46.118,-1,-1,1454.94505494505,2.06813186813187,35.5320083331317
1743442306137,13:31:46.137,-1,-1,1301.0989010989,2.04761904761905,35.5320083331317
1743442306157,13:31:46.157,-1,-1,1186.81318681319,2.03443223443223,35.5320083331317
1743442306176,13:31:46.176,-1,-1,1115.01831501831,2.02710622710623,35.5320083331317
1743442306196,13:31:46.196,-1,-1,1102.5641025641,2.02271062271062,35.5320083331317
1743442306215,13:31:46.215,-1,-1,1138.46153846154,2.03150183150183,35.5320083331317
1743442306235,13:31:46.235,-1,-1,1195.6043956044,2.04761904761905,35.5320083331317
1743442306254,13:31:46.254,-1,-1,1244.68864468864,2.07399267399267,35.5320083331317
1743442306274,13:31:46.274,-1,-1,1348.71794871795,2.11208791208791,35.5320083331317
1743442306293,13:31:46.293,-1,-1,1569.96336996337,2.15897435897436,35.5320083331317
1743442306313,13:31:46.313,-1,-1,1796.336996337,2.15750915750916,35.5320083331317
1743442306332,13:31:46.332,-1,-1,1791.20879120879,2.17362637362637,35.5320083331317
1743442306352,13:31:46.352,-1,-1,1596.336996337,2.18388278388278,35.5320083331317
1743442306371,13:31:46.371,-1,-1,1440.29304029304,2.18534798534799,35.5320083331317
1743442306391,13:31:46.391,-1,-1,1404.3956043956,2.18095238095238,35.5320083331317
1743442306410,13:31:46.410,-1,-1,1442.49084249084,2.17655677655678,35.5320083331317
1743442306430,13:31:46.430,-1,-1,1515.75091575092,2.17362637362637,35.5320083331317
1743442306449,13:31:46.449,-1,-1,1644.68864468864,2.16776556776557,35.5320083331317
1743442306469,13:31:46.469,-1,-1,1762.63736263736,2.16336996336996,35.5320083331317
1743442306488,13:31:46.488,-1,-1,1832.23443223443,2.16190476190476,35.5320083331317
1743442306508,13:31:46.508,-1,-1,1860.07326007326,2.15750915750916,35.5320083331317
1743442306527,13:31:46.527,-1,-1,1854.94505494505,2.15311355311355,35.5320083331317
1743442306547,13:31:46.547,-1,-1,1813.91941391941,2.16043956043956,35.5320083331317
1743442306566,13:31:46.566,-1,-1,1743.58974358974,2.17509157509157,35.5320083331317
1743442306586,13:31:46.586,-1,-1,1664.46886446886,2.18534798534799,35.5270074418513
1743442306605,13:31:46.605,-1,-1,1587.54578754579,2.19560439560439,35.5270074418513
1743442306625,13:31:46.625,-1,-1,1497.4358974359,2.19560439560439,35.5270074418513
1743442306644,13:31:46.644,-1,-1,1391.94139194139,2.16776556776557,35.5270074418513
1743442306664,13:31:46.664,-1,-1,1300.3663003663,2.16336996336996,35.5270074418513
1743442306683,13:31:46.683,-1,-1,1185.34798534799,2.19413919413919,35.5270074418513
1743442306703,13:31:46.703,-1,-1,1012.45421245421,2.21758241758242,35.5270074418513
1743442306722,13:31:46.722,-1,-1,857.142857142857,2.22490842490842,35.5270074418513
1743442306742,13:31:46.742,-1,-1,738.461538461538,2.22344322344322,35.5270074418513
1743442306761,13:31:46.761,-1,-1,567.765567765568,2.20732600732601,35.5270074418513
1743442306781,13:31:46.781,-1,-1,395.604395604396,2.1970695970696,35.5270074418513
1743442306800,13:31:46.800,-1,-1,306.227106227106,2.19560439560439,35.5270074418513
1743442306820,13:31:46.820,-1,-1,279.120879120879,2.22197802197802,35.5270074418513
1743442306839,13:31:46.839,-1,-1,230.03663003663,2.24542124542124,35.5270074418513
1743442306859,13:31:46.859,-1,-1,82.7838827838828,2.24395604395604,35.5270074418513
1743442306878,13:31:46.878,-1,-1,109.157509157509,2.24249084249084,35.5270074418513
1743442306898,13:31:46.898,-1,-1,379.487179487179,2.25128205128205,35.5270074418513
1743442306917,13:31:46.917,-1,-1,701.831501831502,2.28205128205128,35.5270074418513
1743442306937,13:31:46.937,-1,-1,991.208791208791,2.28351648351648,35.5270074418513
1743442306956,13:31:46.956,-1,-1,1273.26007326007,2.28791208791209,35.5270074418513
1743442306976,13:31:46.976,-1,-1,1546.52014652015,2.2967032967033,35.5270074418513
1743442306995,13:31:46.995,-1,-1,1739.19413919414,2.29377289377289,35.5270074418513
1743442307015,13:31:47.015,-1,-1,1865.93406593407,2.28791208791209,35.5270074418513
1743442307034,13:31:47.034,-1,-1,1926.00732600733,2.28498168498168,35.5270074418513
1743442307054,13:31:47.054,-1,-1,1898.9010989011,2.2967032967033,35.5270074418513
1743442307073,13:31:47.073,-1,-1,1696.7032967033,2.30695970695971,35.5270074418513
1743442307093,13:31:47.093,-1,-1,1422.71062271062,2.29230769230769,35.5270074418513
1743442307112,13:31:47.112,-1,-1,1273.99267399267,2.27619047619048,35.5270074418513
1743442307132,13:31:47.132,-1,-1,1280.58608058608,2.25567765567766,35.5270074418513
1743442307151,13:31:47.151,-1,-1,1328.20512820513,2.25567765567766,35.5270074418513
1743442307171,13:31:47.171,-1,-1,1303.2967032967,2.25421245421245,35.5270074418513
1743442307190,13:31:47.190,-1,-1,1244.68864468864,2.25567765567766,35.5270074418513
1743442307210,13:31:47.210,-1,-1,1197.0695970696,2.25421245421245,35.5270074418513
1743442307229,13:31:47.229,-1,-1,1153.11355311355,2.24981684981685,35.5270074418513
1743442307249,13:31:47.249,-1,-1,1133.33333333333,2.25274725274725,35.5270074418513
1743442307268,13:31:47.268,-1,-1,1142.12454212454,2.27326007326007,35.5270074418513
1743442307288,13:31:47.288,-1,-1,1189.74358974359,2.27912087912088,35.5270074418513
1743442307307,13:31:47.307,-1,-1,1237.36263736264,2.28205128205128,35.5270074418513
1743442307327,13:31:47.327,-1,-1,1259.34065934066,2.27765567765568,35.5270074418513
1743442307346,13:31:47.346,-1,-1,1240.29304029304,2.27032967032967,35.5270074418513
1743442307366,13:31:47.366,-1,-1,1180.95238095238,2.26886446886447,35.5270074418513
1743442307385,13:31:47.385,-1,-1,1142.85714285714,2.26886446886447,35.5270074418513
1743442307405,13:31:47.405,-1,-1,1125.27472527473,2.26739926739927,35.5270074418513
1743442307424,13:31:47.424,-1,-1,1133.33333333333,2.26300366300366,35.5270074418513
1743442307444,13:31:47.444,-1,-1,1156.04395604396,2.25860805860806,35.5270074418513
1743442307463,13:31:47.463,-1,-1,1147.98534798535,2.25714285714286,35.5270074418513
1743442307483,13:31:47.483,-1,-1,1093.04029304029,2.25128205128205,35.5270074418513
1743442307502,13:31:47.502,-1,-1,1079.85347985348,2.24395604395604,35.5270074418513
1743442307522,13:31:47.522,-1,-1,1183.15018315018,2.23369963369963,35.5270074418513
1743442307541,13:31:47.541,-1,-1,1330.40293040293,2.22490842490842,35.5270074418513
1743442307561,13:31:47.561,-1,-1,1443.22344322344,2.21758241758242,35.5270074418513
1743442307580,13:31:47.580,-1,-1,1522.34432234432,2.21758241758242,35.5320083331317
1743442307600,13:31:47.600,-1,-1,1590.47619047619,2.22197802197802,35.5320083331317
1743442307619,13:31:47.619,-1,-1,1630.03663003663,2.21904761904762,35.5320083331317
1743442307639,13:31:47.639,-1,-1,1622.71062271062,2.21465201465201,35.5320083331317
1743442307658,13:31:47.658,-1,-1,1611.72161172161,2.21318681318681,35.5320083331317
1743442307678,13:31:47.678,-1,-1,1602.1978021978,2.21172161172161,35.5320083331317
1743442307697,13:31:47.697,-1,-1,1567.03296703297,2.2,35.5320083331317
1743442307717,13:31:47.717,-1,-1,1505.49450549451,2.16483516483516,35.5320083331317
1743442307736,13:31:47.736,-1,-1,1432.23443223443,2.14139194139194,35.5320083331317
1743442307756,13:31:47.756,-1,-1,1372.16117216117,2.13260073260073,35.5320083331317
1743442307775,13:31:47.775,-1,-1,1326.00732600733,2.12967032967033,35.5320083331317
1743442307795,13:31:47.795,-1,-1,1336.26373626374,2.13406593406593,35.5320083331317
1743442307814,13:31:47.814,-1,-1,1359.70695970696,2.12527472527472,35.5320083331317
1743442307834,13:31:47.834,-1,-1,1346.52014652015,2.11355311355311,35.5320083331317
1743442307853,13:31:47.853,-1,-1,1321.61172161172,2.11648351648352,35.5320083331317
1743442307873,13:31:47.873,-1,-1,1335.53113553114,2.11941391941392,35.5320083331317
1743442307892,13:31:47.892,-1,-1,1364.83516483516,2.12967032967033,35.5320083331317
1743442307912,13:31:47.912,-1,-1,1343.58974358974,2.14139194139194,35.5320083331317
1743442307931,13:31:47.931,-1,-1,1293.77289377289,2.15311355311355,35.5320083331317
1743442307951,13:31:47.951,-1,-1,1252.01465201465,2.15897435897436,35.5320083331317
1743442307970,13:31:47.970,-1,-1,1200.7326007326,2.16336996336996,35.5320083331317
1743442307990,13:31:47.990,-1,-1,1179.48717948718,2.16776556776557,35.5320083331317
1743442308009,13:31:48.009,-1,-1,1190.47619047619,2.17509157509157,35.5320083331317
1743442308029,13:31:48.029,-1,-1,1233.69963369963,2.17802197802198,35.5320083331317
1743442308048,13:31:48.048,-1,-1,1315.75091575092,2.18974358974359,35.5320083331317
1743442308068,13:31:48.068,-1,-1,1446.88644688645,2.20879120879121,35.5320083331317
1743442308087,13:31:48.087,-1,-1,1581.68498168498,2.21758241758242,35.5320083331317
1743442308107,13:31:48.107,-1,-1,1673.26007326007,2.22197802197802,35.5320083331317
1743442308126,13:31:48.126,-1,-1,1761.17216117216,2.23809523809524,35.5320083331317
1743442308146,13:31:48.146,-1,-1,1908.42490842491,2.26593406593407,35.5320083331317
1743442308165,13:31:48.165,-1,-1,2150.91575091575,2.32161172161172,35.5320083331317
1743442308185,13:31:48.185,-1,-1,2367.03296703297,2.34065934065934,35.5320083331317
1743442308204,13:31:48.204,103,-1,2356.04395604396,2.34798534798535,35.5320083331317
1743442308224,13:31:48.224,103,-1,2150.91575091575,2.37728937728938,35.5320083331317
1743442308243,13:31:48.243,103,-1,1894.50549450549,2.39047619047619,35.5320083331317
1743442308263,13:31:48.263,103,-1,1690.10989010989,2.4021978021978,35.5320083331317
1743442308282,13:31:48.282,103,-1,1518.68131868132,2.40952380952381,35.5320083331317
1743442308302,13:31:48.302,103,-1,1323.80952380952,2.3992673992674,35.5320083331317
1743442308321,13:31:48.321,103,-1,1147.98534798535,2.37875457875458,35.5320083331317
1743442308341,13:31:48.341,103,-1,1075.45787545788,2.36849816849817,35.5320083331317
1743442308360,13:31:48.360,103,-1,1106.22710622711,2.36703296703297,35.5320083331317
1743442308380,13:31:48.380,103,-1,1177.28937728938,2.36117216117216,35.5320083331317
1743442308399,13:31:48.399,103,-1,1215.38461538462,2.35531135531135,35.5320083331317
1743442308419,13:31:48.419,103,-1,1212.45421245421,2.36996336996337,35.5320083331317
1743442308438,13:31:48.438,103,-1,1205.86080586081,2.37728937728938,35.5320083331317
1743442308458,13:31:48.458,103,-1,1199.2673992674,2.37142857142857,35.5320083331317
1743442308477,13:31:48.477,103,-1,1187.54578754579,2.36410256410256,35.5320083331317
1743442308497,13:31:48.497,103,-1,1166.30036630037,2.36263736263736,35.5320083331317
1743442308516,13:31:48.516,103,-1,1133.33333333333,2.35091575091575,35.5320083331317
1743442308536,13:31:48.536,103,-1,1145.78754578755,2.31135531135531,35.5320083331317
1743442308555,13:31:48.555,103,-1,1247.61904761905,2.32747252747253,35.5320083331317
1743442308575,13:31:48.575,103,-1,1317.94871794872,2.35824175824176,35.5320083331317
1743442308594,13:31:48.594,103,-1,1328.20512820513,2.38021978021978,35.5320083331317
1743442308614,13:31:48.614,103,-1,1319.41391941392,2.38168498168498,35.5320083331317
1743442308633,13:31:48.633,103,-1,1281.31868131868,2.37435897435897,35.5320083331317
1743442308653,13:31:48.653,103,-1,1139.19413919414,2.37582417582418,35.5320083331317
1743442308672,13:31:48.672,103,-1,914.285714285714,2.36703296703297,35.5320083331317
1743442308692,13:31:48.692,103,-1,606.593406593407,2.36703296703297,35.5320083331317
1743442308711,13:31:48.711,103,-1,550.18315018315,2.36117216117216,35.5320083331317
1743442308731,13:31:48.731,103,-1,632.234432234432,2.36996336996337,35.5320083331317
1743442308750,13:31:48.750,103,-1,746.520146520146,2.38608058608059,35.5320083331317
1743442308770,13:31:48.770,103,-1,862.271062271062,2.38315018315018,35.5320083331317
1743442308789,13:31:48.789,103,-1,967.765567765568,2.39194139194139,35.5320083331317
1743442308809,13:31:48.809,106,-1,1129.67032967033,2.39487179487179,35.5320083331317
1743442308828,13:31:48.828,106,-1,1286.44688644689,2.40805860805861,35.5320083331317
1743442308848,13:31:48.848,106,-1,1431.50183150183,2.42564102564103,35.5320083331317
1743442308867,13:31:48.867,106,-1,1558.24175824176,2.43589743589744,35.5320083331317
1743442308887,13:31:48.887,106,-1,1628.57142857143,2.43736263736264,35.5320083331317
1743442308906,13:31:48.906,106,-1,1630.03663003663,2.44175824175824,35.5320083331317
1743442308926,13:31:48.926,106,-1,1589.01098901099,2.44908424908425,35.5320083331317
1743442308945,13:31:48.945,106,-1,1535.53113553114,2.44615384615385,35.5320083331317
1743442308965,13:31:48.965,106,-1,1449.81684981685,2.44175824175824,35.5320083331317
1743442308984,13:31:48.984,106,-1,1298.9010989011,2.43003663003663,35.5320083331317
1743442309004,13:31:49.004,106,-1,1105.49450549451,2.42710622710623,35.5320083331317
1743442309023,13:31:49.023,106,-1,938.461538461538,2.42417582417582,35.5320083331317
1743442309043,13:31:49.043,106,-1,856.410256410256,2.42271062271062,35.5320083331317
1743442309062,13:31:49.062,106,-1,883.516483516484,2.42124542124542,35.5320083331317
1743442309082,13:31:49.082,106,-1,962.637362637363,2.41538461538462,35.5320083331317
1743442309101,13:31:49.101,106,-1,1084.98168498169,2.40659340659341,35.5320083331317
1743442309121,13:31:49.121,106,-1,1265.93406593407,2.403663003663,35.5320083331317
1743442309140,13:31:49.140,106,-1,1443.22344322344,2.4007326007326,35.5320083331317
1743442309160,13:31:49.160,106,-1,1570.69597069597,2.396336996337,35.5320083331317
1743442309179,13:31:49.179,106,-1,1623.44322344322,2.39340659340659,35.5320083331317
1743442309199,13:31:49.199,106,-1,1621.97802197802,2.38608058608059,35.5320083331317
1743442309218,13:31:49.218,106,-1,1583.88278388278,2.38168498168498,35.5320083331317
1743442309238,13:31:49.238,106,-1,1503.2967032967,2.37875457875458,35.5320083331317
1743442309257,13:31:49.257,106,-1,1420.51282051282,2.38168498168498,35.5320083331317
1743442309277,13:31:49.277,106,-1,1372.16117216117,2.38754578754579,35.5320083331317
1743442309296,13:31:49.296,106,-1,1364.83516483516,2.38754578754579,35.5320083331317
1743442309316,13:31:49.316,106,-1,1386.81318681319,2.38901098901099,35.5320083331317
1743442309335,13:31:49.335,106,-1,1409.52380952381,2.396336996337,35.5320083331317
1743442309355,13:31:49.355,99,-1,1430.76923076923,2.4021978021978,35.5320083331317
1743442309374,13:31:49.374,99,-1,1455.67765567766,2.40512820512821,35.5320083331317
1743442309394,13:31:49.394,99,-1,1439.56043956044,2.41245421245421,35.5320083331317
1743442309413,13:31:49.413,99,-1,1397.8021978022,2.42124542124542,35.5320083331317
1743442309433,13:31:49.433,99,-1,1354.57875457875,2.42710622710623,35.5320083331317
1743442309452,13:31:49.452,99,-1,1322.34432234432,2.43736263736264,35.5320083331317
1743442309472,13:31:49.472,99,-1,1298.9010989011,2.44908424908425,35.5320083331317
1743442309491,13:31:49.491,99,-1,1250.54945054945,2.45934065934066,35.5320083331317
1743442309511,13:31:49.511,99,-1,1179.48717948718,2.46080586080586,35.5320083331317
1743442309530,13:31:49.530,99,-1,1114.28571428571,2.46373626373626,35.5320083331317
1743442309550,13:31:49.550,99,-1,1060.07326007326,2.46813186813187,35.5320083331317
1743442309569,13:31:49.569,99,-1,1034.43223443223,2.47399267399267,35.5370092185913
1743442309589,13:31:49.589,99,-1,1078.38827838828,2.47838827838828,35.5370092185913
1743442309608,13:31:49.608,99,-1,1164.83516483516,2.47692307692308,35.5370092185913
1743442309628,13:31:49.628,99,-1,1281.31868131868,2.46520146520146,35.5370092185913
1743442309647,13:31:49.647,99,-1,1394.13919413919,2.46080586080586,35.5370092185913
1743442309667,13:31:49.667,99,-1,1503.2967032967,2.46959706959707,35.5370092185913
1743442309686,13:31:49.686,99,-1,1572.89377289377,2.47545787545788,35.5370092185913
1743442309706,13:31:49.706,99,-1,1598.5347985348,2.47399267399267,35.5370092185913
1743442309725,13:31:49.725,99,-1,1583.15018315018,2.47252747252747,35.5370092185913
1743442309745,13:31:49.745,99,-1,1546.52014652015,2.47252747252747,35.5370092185913
1743442309764,13:31:49.764,99,-1,1509.15750915751,2.48571428571429,35.5370092185913
1743442309784,13:31:49.784,99,-1,1487.17948717949,2.49157509157509,35.5370092185913
1743442309803,13:31:49.803,99,-1,1488.64468864469,2.5032967032967,35.5370092185913
1743442309823,13:31:49.823,99,-1,1467.39926739927,2.51208791208791,35.5370092185913
1743442309842,13:31:49.842,99,-1,1407.32600732601,2.51208791208791,35.5370092185913
1743442309862,13:31:49.862,99,-1,1338.46153846154,2.51794871794872,35.5370092185913
1743442309881,13:31:49.881,99,-1,1238.09523809524,2.52087912087912,35.5370092185913
1743442309901,13:31:49.901,99,-1,1169.23076923077,2.52234432234432,35.5370092185913
1743442309920,13:31:49.920,99,-1,1229.30402930403,2.52380952380952,35.5370092185913
1743442309940,13:31:49.940,110,-1,1345.05494505494,2.52673992673993,35.5370092185913
1743442309959,13:31:49.959,110,-1,1361.90476190476,2.52380952380952,35.5370092185913
1743442309979,13:31:49.979,110,-1,1380.21978021978,2.52380952380952,35.5370092185913
1743442309998,13:31:49.998,110,-1,1411.72161172161,2.53113553113553,35.5370092185913
1743442310018,13:31:50.018,110,-1,1435.89743589744,2.53113553113553,35.5370092185913
1743442310037,13:31:50.037,110,-1,1444.68864468864,2.52820512820513,35.5370092185913
1743442310057,13:31:50.057,110,-1,1432.23443223443,2.52527472527472,35.5370092185913
1743442310076,13:31:50.076,110,-1,1391.94139194139,2.52673992673993,35.5370092185913
1743442310096,13:31:50.096,110,-1,1341.39194139194,2.53553113553113,35.5370092185913
1743442310115,13:31:50.115,110,-1,1344.32234432234,2.54578754578755,35.5370092185913
1743442310135,13:31:50.135,110,-1,1435.89743589744,2.56190476190476,35.5370092185913
1743442310154,13:31:50.154,110,-1,1654.94505494505,2.59413919413919,35.5370092185913
1743442310174,13:31:50.174,110,-1,1992.67399267399,2.60879120879121,35.5370092185913
1743442310193,13:31:50.193,110,-1,2238.09523809524,2.58241758241758,35.5370092185913
1743442310213,13:31:50.213,110,-1,2246.15384615385,2.57509157509157,35.5370092185913
1743442310232,13:31:50.232,110,-1,2128.93772893773,2.57069597069597,35.5370092185913
1743442310252,13:31:50.252,110,-1,2021.24542124542,2.56043956043956,35.5370092185913
1743442310271,13:31:50.271,110,-1,1928.20512820513,2.55311355311355,35.5370092185913
1743442310291,13:31:50.291,110,-1,1794.13919413919,2.55018315018315,35.5370092185913
1743442310310,13:31:50.310,110,-1,1614.65201465201,2.54139194139194,35.5370092185913
1743442310330,13:31:50.330,110,-1,1424.17582417582,2.52967032967033,35.5370092185913
1743442310349,13:31:50.349,110,-1,1294.50549450549,2.51648351648352,35.5370092185913
1743442310369,13:31:50.369,110,-1,1243.95604395604,2.50915750915751,35.5370092185913
1743442310388,13:31:50.388,110,-1,1251.28205128205,2.5003663003663,35.5370092185913
1743442310408,13:31:50.408,110,-1,1259.34065934066,2.49304029304029,35.5370092185913
1743442310427,13:31:50.427,110,-1,1264.46886446886,2.49010989010989,35.5370092185913
1743442310447,13:31:50.447,103,-1,1232.23443223443,2.49304029304029,35.5370092185913
1743442310466,13:31:50.466,103,-1,1191.20879120879,2.48278388278388,35.5370092185913
1743442310486,13:31:50.486,103,-1,1192.67399267399,2.48131868131868,35.5370092185913
1743442310505,13:31:50.505,103,-1,1205.86080586081,2.49010989010989,35.5370092185913
1743442310525,13:31:50.525,103,-1,1216.84981684982,2.47252747252747,35.5370092185913
1743442310544,13:31:50.544,103,-1,1224.17582417582,2.43296703296703,35.5370092185913
1743442310564,13:31:50.564,103,-1,1224.90842490842,2.44615384615385,35.5420100982301
1743442310583,13:31:50.583,103,-1,1156.77655677656,2.46227106227106,35.5420100982301
1743442310603,13:31:50.603,103,-1,1093.04029304029,2.48424908424908,35.5420100982301
1743442310622,13:31:50.622,103,-1,1064.46886446886,2.47545787545788,35.5420100982301
1743442310642,13:31:50.642,103,-1,975.091575091575,2.44615384615385,35.5420100982301
1743442310661,13:31:50.661,103,-1,911.355311355311,2.42710622710623,35.5420100982301
1743442310681,13:31:50.681,103,-1,922.344322344322,2.42124542124542,35.5420100982301
1743442310700,13:31:50.700,103,-1,876.190476190476,2.42124542124542,35.5420100982301
1743442310720,13:31:50.720,103,-1,663.736263736264,2.43882783882784,35.5420100982301
