RawTimestamp,LocalTime,HR_Direct,HR_Buffered,PPG,GSR,Temperature
1743439191924,12:39:51.924,-1,-1,0,2.01538461538462,26.4608428180218
1743439191943,12:39:51.943,-1,-1,0,2.01538461538462,26.4608428180218
1743439191963,12:39:51.963,-1,-1,0,0.710732054015634,26.4608428180218
1743439191982,12:39:51.982,-1,-1,0,0.710732054015634,26.4608428180218
1743439192002,12:39:52.002,-1,-1,0,0.710732054015634,26.4608428180218
1743439192021,12:39:52.021,-1,-1,0,0.710732054015634,26.4608428180218
1743439192041,12:39:52.041,-1,-1,0,0.710732054015634,26.4608428180218
1743439192060,12:39:52.060,-1,-1,0,0.666232721981851,26.4608428180218
1743439192080,12:39:52.080,-1,-1,0,0.666232721981851,26.4608428180218
1743439192099,12:39:52.099,-1,-1,0,0.666232721981851,26.4608428180218
1743439192119,12:39:52.119,-1,-1,0,0.666232721981851,26.4608428180218
1743439192138,12:39:52.138,-1,-1,0,0.666232721981851,26.4608428180218
1743439192158,12:39:52.158,-1,-1,0,0.670329670329671,26.4608428180218
1743439192177,12:39:52.177,-1,-1,0,0.670329670329671,26.4608428180218
1743439192197,12:39:52.197,-1,-1,0,0.670329670329671,26.4608428180218
1743439192216,12:39:52.216,-1,-1,0,0.670329670329671,26.4608428180218
1743439192236,12:39:52.236,-1,-1,0,0.670329670329671,26.4608428180218
1743439192255,12:39:52.255,-1,-1,0,0.662670662670663,26.4608428180218
1743439192275,12:39:52.275,-1,-1,0,0.667110667110667,26.4608428180218
1743439192294,12:39:52.294,-1,-1,0,0.666666666666667,26.4608428180218
1743439192314,12:39:52.314,-1,-1,0,0.663114663114663,26.4608428180218
1743439192333,12:39:52.333,-1,-1,0,0.659562659562659,26.4608428180218
1743439192353,12:39:52.353,-1,-1,0,0.66000666000666,26.4608428180218
1743439192372,12:39:52.372,-1,-1,0,0.663114663114663,26.4608428180218
1743439192392,12:39:52.392,-1,-1,0,0.666222666222666,26.4608428180218
1743439192411,12:39:52.411,-1,-1,0,0.665778665778666,26.4608428180218
1743439192431,12:39:52.431,-1,-1,0,0.661782661782662,26.4608428180218
1743439192450,12:39:52.450,-1,-1,0,0.659118659118659,26.4608428180218
1743439192470,12:39:52.470,-1,-1,0,0.659562659562659,26.4608428180218
1743439192489,12:39:52.489,-1,-1,0,0.663114663114663,26.4608428180218
1743439192509,12:39:52.509,-1,-1,0,0.665778665778666,26.4608428180218
1743439192528,12:39:52.528,-1,-1,0,0.664446664446664,26.4608428180218
1743439192548,12:39:52.548,-1,-1,0,0.66045066045066,26.4608428180218
1743439192567,12:39:52.567,-1,-1,0,0.657786657786658,26.4608428180218
1743439192587,12:39:52.587,-1,-1,0,0.658674658674659,26.4608428180218
1743439192606,12:39:52.606,-1,-1,0,0.662670662670663,26.4608428180218
1743439192626,12:39:52.626,-1,-1,0,0.664890664890665,26.4608428180218
1743439192645,12:39:52.645,-1,-1,0,0.663558663558663,26.4608428180218
1743439192665,12:39:52.665,-1,-1,0,0.659118659118659,26.4608428180218
1743439192684,12:39:52.684,-1,-1,0,0.656454656454656,26.4608428180218
1743439192704,12:39:52.704,-1,-1,0,0.657786657786658,26.4608428180218
1743439192723,12:39:52.723,-1,-1,0,0.661782661782662,26.4608428180218
1743439192743,12:39:52.743,-1,-1,0,0.663558663558663,26.4608428180218
1743439192762,12:39:52.762,-1,-1,0,0.661782661782662,26.4608428180218
1743439192782,12:39:52.782,-1,-1,0,0.656898656898657,26.4608428180218
1743439192801,12:39:52.801,-1,-1,0,0.655122655122655,26.4608428180218
1743439192821,12:39:52.821,-1,-1,0,0.656454656454656,26.4608428180218
1743439192840,12:39:52.840,-1,-1,0,0.66045066045066,33.9164177522762
1743439192860,12:39:52.860,-1,-1,0,0.661338661338661,33.9164177522762
1743439192879,12:39:52.879,-1,-1,0,0.659118659118659,33.9164177522762
1743439192899,12:39:52.899,-1,-1,0,0.654234654234654,33.9164177522762
1743439192918,12:39:52.918,-1,-1,0,0.652902652902653,33.9164177522762
1743439192938,12:39:52.938,-1,-1,0,0.654234654234654,33.9164177522762
1743439192957,12:39:52.957,-1,-1,0,0.658674658674659,33.9164177522762
1743439192977,12:39:52.977,-1,-1,0,0.659118659118659,33.9164177522762
1743439192996,12:39:52.996,-1,-1,0,0.656454656454656,33.9164177522762
1743439193016,12:39:53.016,-1,-1,0,0.651570651570651,33.9164177522762
1743439193035,12:39:53.035,-1,-1,0,0.650682650682651,33.9164177522762
1743439193055,12:39:53.055,-1,-1,0,0.652458652458652,33.9164177522762
1743439193074,12:39:53.074,-1,-1,0,0.656898656898657,33.9164177522762
1743439193094,12:39:53.094,-1,-1,0,0.656898656898657,33.9164177522762
1743439193113,12:39:53.113,-1,-1,0,0.654678654678655,33.9164177522762
1743439193133,12:39:53.133,-1,-1,0,0.64979464979465,33.9164177522762
1743439193152,12:39:53.152,-1,-1,0,0.649350649350649,33.9164177522762
1743439193172,12:39:53.172,-1,-1,0,0.651570651570651,33.9164177522762
1743439193191,12:39:53.191,-1,-1,0,0.655566655566655,33.9164177522762
1743439193211,12:39:53.211,-1,-1,0,0.655566655566655,33.9164177522762
1743439193230,12:39:53.230,-1,-1,0,0.652458652458652,33.9164177522762
1743439193250,12:39:53.250,-1,-1,0,0.648018648018648,33.9164177522762
1743439193269,12:39:53.269,-1,-1,0,0.648018648018648,33.9164177522762
1743439193289,12:39:53.289,-1,-1,0,0.650682650682651,33.9164177522762
1743439193308,12:39:53.308,-1,-1,0,0.654234654234654,33.9164177522762
1743439193328,12:39:53.328,-1,-1,0,0.653790653790654,33.9164177522762
1743439193347,12:39:53.347,-1,-1,0,0.650682650682651,33.9164177522762
1743439193367,12:39:53.367,-1,-1,0,0.646686646686647,33.9164177522762
1743439193386,12:39:53.386,-1,-1,0,0.647130647130647,33.9164177522762
1743439193406,12:39:53.406,-1,-1,0,0.65023865023865,33.9164177522762
1743439193425,12:39:53.425,-1,-1,0,0.653346653346653,33.9164177522762
1743439193445,12:39:53.445,-1,-1,0,0.652458652458652,33.9164177522762
1743439193464,12:39:53.464,-1,-1,259.340659340659,0.648906648906649,33.9164177522762
1743439193484,12:39:53.484,-1,-1,619.78021978022,0.645354645354645,33.9164177522762
1743439193503,12:39:53.503,-1,-1,884.981684981685,0.646242646242646,33.9164177522762
1743439193523,12:39:53.523,-1,-1,1043.95604395604,0.649350649350649,33.9164177522762
1743439193542,12:39:53.542,-1,-1,1139.92673992674,0.652458652458652,33.9164177522762
1743439193562,12:39:53.562,-1,-1,1191.20879120879,0.651126651126651,33.9164177522762
1743439193581,12:39:53.581,-1,-1,1206.59340659341,0.646686646686647,33.9164177522762
1743439193601,12:39:53.601,-1,-1,1202.9304029304,0.644022644022644,33.9164177522762
1743439193620,12:39:53.620,-1,-1,1191.94139194139,0.644466644466644,33.9164177522762
1743439193640,12:39:53.640,-1,-1,1189.74358974359,0.648462648462648,33.9164177522762
1743439193659,12:39:53.659,-1,-1,1186.81318681319,0.650682650682651,33.9164177522762
1743439193679,12:39:53.679,-1,-1,1183.88278388278,0.649350649350649,33.9164177522762
1743439193698,12:39:53.698,-1,-1,1175.82417582418,0.644910644910645,33.9164177522762
1743439193718,12:39:53.718,-1,-1,1173.62637362637,0.642690642690643,33.9164177522762
1743439193737,12:39:53.737,-1,-1,1176.55677655678,0.643578643578643,33.9164177522762
1743439193757,12:39:53.757,-1,-1,1178.75457875458,0.647574647574647,33.9164177522762
1743439193776,12:39:53.776,-1,-1,1171.42857142857,0.649350649350649,33.9164177522762
1743439193796,12:39:53.796,-1,-1,1158.24175824176,0.647574647574647,33.9164177522762
1743439193815,12:39:53.815,-1,-1,1175.09157509158,0.643134643134643,33.9164177522762
1743439193835,12:39:53.835,-1,-1,1221.24542124542,0.640914640914641,33.9114149808884
1743439193854,12:39:53.854,-1,-1,1282.78388278388,0.642246642246642,33.9114149808884
1743439193874,12:39:53.874,-1,-1,1351.64835164835,0.646242646242646,33.9114149808884
1743439193893,12:39:53.893,-1,-1,1399.2673992674,0.647574647574647,33.9114149808884
1743439193913,12:39:53.913,-1,-1,1428.57142857143,0.645798645798646,33.9114149808884
1743439193932,12:39:53.932,-1,-1,1457.14285714286,0.640914640914641,33.9114149808884
1743439193952,12:39:53.952,-1,-1,1484.98168498168,0.63958263958264,33.9114149808884
1743439193971,12:39:53.971,-1,-1,1504.0293040293,0.640914640914641,33.9114149808884
1743439193991,12:39:53.991,-1,-1,1517.94871794872,0.645354645354645,33.9114149808884
1743439194010,12:39:54.010,-1,-1,1531.13553113553,0.646242646242646,33.9114149808884
1743439194030,12:39:54.030,-1,-1,1537.72893772894,0.644466644466644,33.9114149808884
1743439194049,12:39:54.049,-1,-1,1531.13553113553,0.63958263958264,33.9114149808884
1743439194069,12:39:54.069,-1,-1,1498.9010989011,0.638250638250638,33.9114149808884
1743439194088,12:39:54.088,-1,-1,1472.52747252747,0.64002664002664,33.9114149808884
1743439194108,12:39:54.108,-1,-1,1460.80586080586,0.644466644466644,33.9114149808884
1743439194127,12:39:54.127,-1,-1,1452.74725274725,0.644910644910645,33.9114149808884
1743439194147,12:39:54.147,-1,-1,1449.08424908425,0.642690642690643,33.9114149808884
1743439194166,12:39:54.166,-1,-1,1443.22344322344,0.637806637806638,33.9114149808884
1743439194186,12:39:54.186,-1,-1,1430.76923076923,0.637362637362637,33.9114149808884
1743439194205,12:39:54.205,-1,-1,1413.18681318681,0.63958263958264,33.9114149808884
1743439194225,12:39:54.225,-1,-1,1407.32600732601,0.643578643578643,33.9114149808884
1743439194244,12:39:54.244,-1,-1,1396.336996337,0.643578643578643,33.9114149808884
1743439194264,12:39:54.264,-1,-1,1383.88278388278,0.640914640914641,33.9114149808884
1743439194283,12:39:54.283,-1,-1,1367.03296703297,0.636474636474636,33.9114149808884
1743439194303,12:39:54.303,-1,-1,1365.56776556777,0.636474636474636,33.9114149808884
1743439194322,12:39:54.322,-1,-1,1361.17216117216,0.639138639138639,33.9114149808884
1743439194342,12:39:54.342,-1,-1,1345.05494505494,0.643134643134643,33.9114149808884
1743439194361,12:39:54.361,-1,-1,1334.79853479853,0.642690642690643,33.9114149808884
1743439194381,12:39:54.381,-1,-1,1326.73992673993,0.63958263958264,33.9114149808884
1743439194400,12:39:54.400,-1,-1,1312.82051282051,0.635586635586636,33.9114149808884
1743439194420,12:39:54.420,-1,-1,1306.95970695971,0.635586635586636,33.9114149808884
1743439194439,12:39:54.439,-1,-1,1299.6336996337,0.638250638250638,33.9114149808884
1743439194459,12:39:54.459,-1,-1,1299.6336996337,0.641358641358641,33.9114149808884
1743439194478,12:39:54.478,-1,-1,1301.0989010989,0.64047064047064,33.9114149808884
1743439194498,12:39:54.498,-1,-1,1287.91208791209,0.636918636918637,33.9114149808884
1743439194517,12:39:54.517,-1,-1,1291.57509157509,0.632922632922633,33.9114149808884
1743439194537,12:39:54.537,-1,-1,1282.05128205128,0.632922632922633,33.9114149808884
1743439194556,12:39:54.556,-1,-1,1265.93406593407,0.636030636030636,33.9114149808884
1743439194576,12:39:54.576,-1,-1,1248.35164835165,0.639138639138639,33.9114149808884
1743439194595,12:39:54.595,-1,-1,1234.43223443223,0.637806637806638,33.9114149808884
1743439194615,12:39:54.615,-1,-1,1237.36263736264,0.633810633810634,33.9114149808884
1743439194634,12:39:54.634,-1,-1,1248.35164835165,0.630702630702631,33.9114149808884
1743439194654,12:39:54.654,-1,-1,1246.15384615385,0.631146631146631,33.9114149808884
1743439194673,12:39:54.673,-1,-1,1264.46886446886,0.635142635142635,33.9114149808884
1743439194693,12:39:54.693,-1,-1,1296.7032967033,0.637806637806638,33.9114149808884
1743439194712,12:39:54.712,-1,-1,1338.46153846154,0.636030636030636,33.9114149808884
1743439194732,12:39:54.732,-1,-1,1404.3956043956,0.632478632478632,33.9114149808884
1743439194751,12:39:54.751,-1,-1,1470.32967032967,0.629370629370629,33.9114149808884
1743439194771,12:39:54.771,-1,-1,1515.75091575092,0.63025863025863,33.9114149808884
1743439194790,12:39:54.790,-1,-1,1573.62637362637,0.634698634698635,33.9114149808884
1743439194810,12:39:54.810,-1,-1,1608.05860805861,0.636918636918637,33.9114149808884
1743439194829,12:39:54.829,-1,-1,1635.16483516484,0.636474636474636,33.9214205178432
1743439194849,12:39:54.849,-1,-1,1655.67765567766,0.633366633366633,33.9214205178432
1743439194868,12:39:54.868,-1,-1,1668.13186813187,0.632478632478632,33.9214205178432
1743439194888,12:39:54.888,-1,-1,1666.66666666667,0.634698634698635,33.9214205178432
1743439194907,12:39:54.907,-1,-1,1661.53846153846,0.63958263958264,33.9214205178432
1743439194927,12:39:54.927,-1,-1,1658.60805860806,0.641802641802642,33.9214205178432
1743439194946,12:39:54.946,-1,-1,1635.16483516484,0.64047064047064,33.9214205178432
1743439194966,12:39:54.966,-1,-1,1615.38461538462,0.636030636030636,33.9214205178432
1743439194985,12:39:54.985,-1,-1,1602.9304029304,0.635142635142635,33.9214205178432
1743439195005,12:39:55.005,-1,-1,1571.42857142857,0.637806637806638,33.9214205178432
1743439195024,12:39:55.024,-1,-1,1540.65934065934,0.643134643134643,33.9214205178432
1743439195044,12:39:55.044,-1,-1,1518.68131868132,0.644910644910645,33.9214205178432
1743439195063,12:39:55.063,-1,-1,1512.82051282051,0.644022644022644,33.9214205178432
1743439195083,12:39:55.083,-1,-1,1512.08791208791,0.64047064047064,33.9214205178432
1743439195102,12:39:55.102,-1,-1,1515.01831501831,0.64047064047064,33.9214205178432
1743439195122,12:39:55.122,-1,-1,1512.08791208791,0.643578643578643,33.9214205178432
1743439195141,12:39:55.141,-1,-1,1495.2380952381,0.64979464979465,33.9214205178432
1743439195161,12:39:55.161,-1,-1,1467.39926739927,0.652014652014652,33.9214205178432
1743439195180,12:39:55.180,-1,-1,1437.36263736264,0.650682650682651,33.9214205178432
1743439195200,12:39:55.200,-1,-1,1406.59340659341,0.647130647130647,33.9214205178432
1743439195219,12:39:55.219,-1,-1,1386.08058608059,0.648018648018648,33.9214205178432
1743439195239,12:39:55.239,-1,-1,1379.48717948718,0.651126651126651,33.9214205178432
1743439195258,12:39:55.258,-1,-1,1370.69597069597,0.657342657342657,33.9214205178432
1743439195278,12:39:55.278,-1,-1,1347.25274725275,0.658674658674659,33.9214205178432
1743439195297,12:39:55.297,-1,-1,1328.20512820513,0.657342657342657,33.9214205178432
1743439195317,12:39:55.317,-1,-1,1305.49450549451,0.653790653790654,33.9214205178432
1743439195336,12:39:55.336,-1,-1,1290.84249084249,0.653790653790654,33.9214205178432
1743439195356,12:39:55.356,-1,-1,1289.37728937729,0.656898656898657,33.9214205178432
1743439195375,12:39:55.375,-1,-1,1294.50549450549,0.661782661782662,33.9214205178432
1743439195395,12:39:55.395,-1,-1,1320.87912087912,0.661782661782662,33.9214205178432
1743439195414,12:39:55.414,-1,-1,1345.05494505494,0.659118659118659,33.9214205178432
1743439195434,12:39:55.434,-1,-1,1347.25274725275,0.655122655122655,33.9214205178432
1743439195453,12:39:55.453,-1,-1,1334.06593406593,0.655566655566655,33.9214205178432
1743439195473,12:39:55.473,-1,-1,1322.34432234432,0.658674658674659,33.9214205178432
1743439195492,12:39:55.492,-1,-1,1315.75091575092,0.664002664002664,33.9214205178432
1743439195512,12:39:55.512,-1,-1,1311.35531135531,0.663558663558663,33.9214205178432
1743439195531,12:39:55.531,-1,-1,1298.9010989011,0.66045066045066,33.9214205178432
1743439195551,12:39:55.551,-1,-1,1276.19047619048,0.657342657342657,33.9214205178432
1743439195570,12:39:55.570,-1,-1,1254.21245421245,0.658230658230658,33.9214205178432
1743439195590,12:39:55.590,-1,-1,1260.80586080586,0.661782661782662,33.9214205178432
1743439195609,12:39:55.609,-1,-1,1301.0989010989,0.665778665778666,33.9214205178432
1743439195629,12:39:55.629,-1,-1,1369.23076923077,0.665778665778666,33.9214205178432
1743439195648,12:39:55.648,-1,-1,1458.60805860806,0.662670662670663,33.9214205178432
1743439195668,12:39:55.668,-1,-1,1539.92673992674,0.659562659562659,33.9214205178432
1743439195687,12:39:55.687,-1,-1,1627.10622710623,0.660894660894661,33.9214205178432
1743439195707,12:39:55.707,-1,-1,1693.77289377289,0.664890664890665,33.9214205178432
1743439195726,12:39:55.726,-1,-1,1720.14652014652,0.668442668442668,33.9214205178432
1743439195746,12:39:55.746,-1,-1,1718.68131868132,0.667554667554667,33.9214205178432
1743439195765,12:39:55.765,-1,-1,1728.20512820513,0.664002664002664,33.9214205178432
1743439195785,12:39:55.785,-1,-1,1750.18315018315,0.661338661338661,33.9214205178432
1743439195804,12:39:55.804,-1,-1,1764.83516483516,0.662670662670663,33.9214205178432
1743439195824,12:39:55.824,-1,-1,1758.24175824176,0.667110667110667,33.9164177522762
1743439195843,12:39:55.843,-1,-1,1734.79853479853,0.66977466977467,33.9164177522762
1743439195863,12:39:55.863,-1,-1,1703.2967032967,0.668886668886669,33.9164177522762
1743439195882,12:39:55.882,-1,-1,1661.53846153846,0.664890664890665,33.9164177522762
1743439195902,12:39:55.902,-1,-1,1629.30402930403,0.664002664002664,33.9164177522762
1743439195921,12:39:55.921,-1,-1,1597.0695970696,0.666666666666667,33.9164177522762
1743439195941,12:39:55.941,-1,-1,1570.69597069597,0.671106671106671,33.9164177522762
1743439195960,12:39:55.960,-1,-1,1559.70695970696,0.673326673326673,33.9164177522762
1743439195980,12:39:55.980,-1,-1,1556.04395604396,0.671550671550671,33.9164177522762
1743439195999,12:39:55.999,-1,-1,1543.58974358974,0.667110667110667,33.9164177522762
1743439196019,12:39:56.019,-1,-1,1521.61172161172,0.665778665778666,33.9164177522762
1743439196038,12:39:56.038,-1,-1,1500.3663003663,0.667554667554667,33.9164177522762
1743439196058,12:39:56.058,-1,-1,1482.05128205128,0.671994671994672,33.9164177522762
1743439196077,12:39:56.077,-1,-1,1468.13186813187,0.673770673770674,33.9164177522762
1743439196097,12:39:56.097,-1,-1,1449.08424908425,0.672438672438672,33.9164177522762
1743439196116,12:39:56.116,-1,-1,1420.51282051282,0.667998667998668,33.9164177522762
1743439196136,12:39:56.136,-1,-1,1410.98901098901,0.667110667110667,33.9164177522762
1743439196155,12:39:56.155,-1,-1,1397.8021978022,0.668886668886669,33.9164177522762
1743439196175,12:39:56.175,-1,-1,1385.34798534799,0.673770673770674,33.9164177522762
1743439196194,12:39:56.194,-1,-1,1368.49816849817,0.675102675102675,33.9164177522762
1743439196214,12:39:56.214,-1,-1,1354.57875457875,0.672882672882673,33.9164177522762
1743439196233,12:39:56.233,-1,-1,1348.71794871795,0.668442668442668,33.9164177522762
1743439196253,12:39:56.253,-1,-1,1339.19413919414,0.667998667998668,33.9164177522762
1743439196272,12:39:56.272,-1,-1,1323.07692307692,0.66977466977467,33.9164177522762
1743439196292,12:39:56.292,-1,-1,1320.87912087912,0.674658674658675,33.9164177522762
1743439196311,12:39:56.311,-1,-1,1318.68131868132,0.675102675102675,33.9164177522762
1743439196331,12:39:56.331,-1,-1,1320.87912087912,0.672882672882673,33.9164177522762
1743439196350,12:39:56.350,-1,-1,1306.95970695971,0.668442668442668,33.9164177522762
1743439196370,12:39:56.370,-1,-1,1292.30769230769,0.668442668442668,33.9164177522762
1743439196389,12:39:56.389,-1,-1,1295.9706959707,0.671106671106671,33.9164177522762
1743439196409,12:39:56.409,-1,-1,1290.10989010989,0.675102675102675,33.9164177522762
1743439196428,12:39:56.428,-1,-1,1287.91208791209,0.675990675990676,33.9164177522762
1743439196448,12:39:56.448,-1,-1,1280.58608058608,0.673326673326673,33.9164177522762
1743439196467,12:39:56.467,-1,-1,1260.07326007326,0.668886668886669,33.9164177522762
1743439196487,12:39:56.487,-1,-1,1246.88644688645,0.668886668886669,33.9164177522762
1743439196506,12:39:56.506,-1,-1,1284.24908424908,0.671994671994672,33.9164177522762
1743439196526,12:39:56.526,-1,-1,1364.83516483516,0.675990675990676,33.9164177522762
1743439196545,12:39:56.545,-1,-1,1453.47985347985,0.675990675990676,33.9164177522762
1743439196565,12:39:56.565,-1,-1,1534.79853479853,0.672882672882673,33.9164177522762
1743439196584,12:39:56.584,-1,-1,1614.65201465201,0.668886668886669,33.9164177522762
1743439196604,12:39:56.604,-1,-1,1674.72527472527,0.669330669330669,33.9164177522762
1743439196623,12:39:56.623,-1,-1,1723.07692307692,0.672438672438672,33.9164177522762
1743439196643,12:39:56.643,-1,-1,1766.30036630037,0.676434676434676,33.9164177522762
1743439196662,12:39:56.662,-1,-1,1776.55677655678,0.675546675546675,33.9164177522762
1743439196682,12:39:56.682,-1,-1,1764.83516483516,0.672438672438672,33.9164177522762
1743439196701,12:39:56.701,-1,-1,1739.92673992674,0.668886668886669,33.9164177522762
1743439196721,12:39:56.721,-1,-1,1707.69230769231,0.66977466977467,33.9164177522762
1743439196740,12:39:56.740,-1,-1,1679.12087912088,0.673326673326673,33.9164177522762
1743439196760,12:39:56.760,-1,-1,1650.54945054945,0.676434676434676,33.9164177522762
1743439196779,12:39:56.779,-1,-1,1623.44322344322,0.675990675990676,33.9164177522762
1743439196799,12:39:56.799,-1,-1,1594.13919413919,0.671994671994672,33.9164177522762
1743439196818,12:39:56.818,-1,-1,1572.89377289377,0.669330669330669,33.9264232775895
1743439196838,12:39:56.838,-1,-1,1567.03296703297,0.67021867021867,33.9264232775895
1743439196857,12:39:56.857,-1,-1,1563.36996336996,0.673770673770674,33.9264232775895
1743439196877,12:39:56.877,-1,-1,1556.04395604396,0.676434676434676,33.9264232775895
1743439196896,12:39:56.896,-1,-1,1550.91575091575,0.675546675546675,33.9264232775895
1743439196916,12:39:56.916,-1,-1,1539.19413919414,0.671550671550671,33.9264232775895
1743439196935,12:39:56.935,-1,-1,1508.42490842491,0.668886668886669,33.9264232775895
1743439196955,12:39:56.955,-1,-1,1489.37728937729,0.67021867021867,33.9264232775895
1743439196974,12:39:56.974,-1,-1,1484.24908424908,0.673770673770674,33.9264232775895
1743439196994,12:39:56.994,-1,-1,1465.93406593407,0.676434676434676,33.9264232775895
1743439197013,12:39:57.013,-1,-1,1439.56043956044,0.674658674658675,33.9264232775895
1743439197033,12:39:57.033,-1,-1,1410.25641025641,0.670662670662671,33.9264232775895
1743439197052,12:39:57.052,-1,-1,1373.62637362637,0.668886668886669,33.9264232775895
1743439197072,12:39:57.072,-1,-1,1345.05494505494,0.66977466977467,33.9264232775895
1743439197091,12:39:57.091,-1,-1,1339.92673992674,0.674658674658675,33.9264232775895
1743439197111,12:39:57.111,-1,-1,1334.06593406593,0.676434676434676,33.9264232775895
1743439197130,12:39:57.130,-1,-1,1327.47252747253,0.675102675102675,33.9264232775895
1743439197150,12:39:57.150,-1,-1,1320.14652014652,0.67021867021867,33.9264232775895
1743439197169,12:39:57.169,-1,-1,1315.75091575092,0.668442668442668,33.9264232775895
1743439197189,12:39:57.189,-1,-1,1308.42490842491,0.670662670662671,33.9264232775895
1743439197208,12:39:57.208,-1,-1,1304.7619047619,0.675102675102675,33.9264232775895
1743439197228,12:39:57.228,-1,-1,1301.0989010989,0.676434676434676,33.9264232775895
1743439197247,12:39:57.247,-1,-1,1290.84249084249,0.674658674658675,33.9264232775895
1743439197267,12:39:57.267,-1,-1,1293.77289377289,0.66977466977467,33.9264232775895
1743439197286,12:39:57.286,-1,-1,1298.9010989011,0.668886668886669,33.9264232775895
1743439197306,12:39:57.306,-1,-1,1294.50549450549,0.671106671106671,33.9264232775895
1743439197325,12:39:57.325,-1,-1,1297.4358974359,0.675546675546675,33.9264232775895
1743439197345,12:39:57.345,-1,-1,1347.98534798535,0.675990675990676,33.9264232775895
1743439197364,12:39:57.364,-1,-1,1416.84981684982,0.674214674214674,33.9264232775895
1743439197384,12:39:57.384,-1,-1,1510.62271062271,0.66977466977467,33.9264232775895
1743439197403,12:39:57.403,-1,-1,1617.58241758242,0.669330669330669,33.9264232775895
1743439197423,12:39:57.423,-1,-1,1709.15750915751,0.671550671550671,33.9264232775895
1743439197442,12:39:57.442,-1,-1,1774.35897435897,0.675990675990676,33.9264232775895
1743439197462,12:39:57.462,-1,-1,1807.32600732601,0.675990675990676,33.9264232775895
1743439197481,12:39:57.481,-1,-1,1816.11721611722,0.673770673770674,33.9264232775895
1743439197501,12:39:57.501,-1,-1,1807.32600732601,0.669330669330669,33.9264232775895
1743439197520,12:39:57.520,-1,-1,1786.81318681319,0.669330669330669,33.9264232775895
1743439197540,12:39:57.540,-1,-1,1772.89377289377,0.671994671994672,33.9264232775895
1743439197559,12:39:57.559,-1,-1,1747.98534798535,0.676434676434676,33.9264232775895
1743439197579,12:39:57.579,-1,-1,1701.8315018315,0.676434676434676,33.9264232775895
1743439197598,12:39:57.598,-1,-1,1650.54945054945,0.673770673770674,33.9264232775895
1743439197618,12:39:57.618,-1,-1,1604.3956043956,0.669330669330669,33.9264232775895
1743439197637,12:39:57.637,-1,-1,1585.34798534799,0.669330669330669,33.9264232775895
1743439197657,12:39:57.657,-1,-1,1572.89377289377,0.671994671994672,33.9264232775895
1743439197676,12:39:57.676,-1,-1,1567.76556776557,0.675546675546675,33.9264232775895
1743439197696,12:39:57.696,-1,-1,1575.82417582418,0.675102675102675,33.9264232775895
1743439197715,12:39:57.715,-1,-1,1562.63736263736,0.671994671994672,33.9264232775895
1743439197735,12:39:57.735,-1,-1,1548.71794871795,0.667998667998668,33.9264232775895
1743439197754,12:39:57.754,-1,-1,1527.47252747253,0.668442668442668,33.9264232775895
1743439197774,12:39:57.774,-1,-1,1501.0989010989,0.671550671550671,33.9264232775895
1743439197793,12:39:57.793,-1,-1,1468.86446886447,0.675102675102675,33.9264232775895
1743439197813,12:39:57.813,-1,-1,1454.21245421245,0.674214674214674,33.9214205178432
1743439197832,12:39:57.832,-1,-1,1434.43223443223,0.670662670662671,33.9214205178432
1743439197852,12:39:57.852,-1,-1,1407.32600732601,0.667110667110667,33.9214205178432
1743439197871,12:39:57.871,-1,-1,1375.82417582418,0.667998667998668,33.9214205178432
1743439197891,12:39:57.891,-1,-1,1350.91575091575,0.671550671550671,33.9214205178432
1743439197910,12:39:57.910,-1,-1,1334.06593406593,0.674214674214674,33.9214205178432
1743439197930,12:39:57.930,-1,-1,1324.54212454212,0.673326673326673,33.9214205178432
1743439197949,12:39:57.949,-1,-1,1318.68131868132,0.66977466977467,33.9214205178432
1743439197969,12:39:57.969,-1,-1,1310.62271062271,0.666666666666667,33.9214205178432
1743439197988,12:39:57.988,-1,-1,1303.2967032967,0.667554667554667,33.9214205178432
1743439198008,12:39:58.008,-1,-1,1303.2967032967,0.671550671550671,33.9214205178432
1743439198027,12:39:58.027,-1,-1,1302.5641025641,0.673770673770674,33.9214205178432
1743439198047,12:39:58.047,-1,-1,1302.5641025641,0.672882672882673,33.9214205178432
1743439198066,12:39:58.066,-1,-1,1284.98168498168,0.668442668442668,33.9214205178432
1743439198086,12:39:58.086,-1,-1,1265.93406593407,0.665778665778666,33.9214205178432
1743439198105,12:39:58.105,-1,-1,1265.20146520147,0.667110667110667,33.9214205178432
1743439198125,12:39:58.125,-1,-1,1265.93406593407,0.671106671106671,33.9214205178432
1743439198144,12:39:58.144,-1,-1,1271.06227106227,0.673326673326673,33.9214205178432
1743439198164,12:39:58.164,-1,-1,1289.37728937729,0.671550671550671,33.9214205178432
1743439198183,12:39:58.183,-1,-1,1331.86813186813,0.667110667110667,33.9214205178432
1743439198203,12:39:58.203,-1,-1,1408.79120879121,0.665334665334665,33.9214205178432
1743439198222,12:39:58.222,-1,-1,1503.2967032967,0.666666666666667,33.9214205178432
1743439198242,12:39:58.242,-1,-1,1609.52380952381,0.671106671106671,33.9214205178432
1743439198261,12:39:58.261,-1,-1,1697.4358974359,0.671994671994672,33.9214205178432
1743439198281,12:39:58.281,-1,-1,1764.10256410256,0.670662670662671,33.9214205178432
1743439198300,12:39:58.300,-1,-1,1806.59340659341,0.665778665778666,33.9214205178432
1743439198320,12:39:58.320,-1,-1,1827.10622710623,0.664446664446664,33.9214205178432
1743439198339,12:39:58.339,-1,-1,1831.50183150183,0.666222666222666,33.9214205178432
1743439198359,12:39:58.359,-1,-1,1832.23443223443,0.670662670662671,33.9214205178432
1743439198378,12:39:58.378,-1,-1,1824.90842490842,0.671106671106671,33.9214205178432
1743439198398,12:39:58.398,-1,-1,1800,0.669330669330669,33.9214205178432
1743439198417,12:39:58.417,-1,-1,1767.03296703297,0.664446664446664,33.9214205178432
1743439198437,12:39:58.437,-1,-1,1728.20512820513,0.663558663558663,33.9214205178432
1743439198456,12:39:58.456,-1,-1,1683.51648351648,0.665334665334665,33.9214205178432
1743439198476,12:39:58.476,-1,-1,1660.07326007326,0.66977466977467,33.9214205178432
1743439198495,12:39:58.495,-1,-1,1639.56043956044,0.67021867021867,33.9214205178432
1743439198515,12:39:58.515,-1,-1,1614.65201465201,0.667998667998668,33.9214205178432
1743439198534,12:39:58.534,-1,-1,1593.40659340659,0.663558663558663,33.9214205178432
1743439198554,12:39:58.554,-1,-1,1572.16117216117,0.663114663114663,33.9214205178432
1743439198573,12:39:58.573,-1,-1,1552.38095238095,0.665334665334665,33.9214205178432
1743439198593,12:39:58.593,-1,-1,1539.92673992674,0.669330669330669,33.9214205178432
1743439198612,12:39:58.612,-1,-1,1515.01831501831,0.669330669330669,33.9214205178432
1743439198632,12:39:58.632,-1,-1,1483.51648351648,0.666666666666667,33.9214205178432
1743439198651,12:39:58.651,-1,-1,1452.01465201465,0.662226662226662,33.9214205178432
1743439198671,12:39:58.671,-1,-1,1427.10622710623,0.662226662226662,33.9214205178432
1743439198690,12:39:58.690,-1,-1,1393.40659340659,0.664890664890665,33.9214205178432
1743439198710,12:39:58.710,-1,-1,1367.76556776557,0.668886668886669,33.9214205178432
1743439198729,12:39:58.729,-1,-1,1361.90476190476,0.668886668886669,33.9214205178432
1743439198749,12:39:58.749,-1,-1,1355.31135531136,0.665778665778666,33.9214205178432
1743439198768,12:39:58.768,-1,-1,1350.18315018315,0.661338661338661,33.9214205178432
1743439198788,12:39:58.788,-1,-1,1331.13553113553,0.661782661782662,33.9214205178432
1743439198807,12:39:58.807,-1,-1,1321.61172161172,0.664890664890665,33.9264232775895
1743439198827,12:39:58.827,-1,-1,1313.55311355311,0.668442668442668,33.9264232775895
1743439198846,12:39:58.846,-1,-1,1306.95970695971,0.667998667998668,33.9264232775895
1743439198866,12:39:58.866,-1,-1,1301.8315018315,0.664890664890665,33.9264232775895
1743439198885,12:39:58.885,-1,-1,1284.98168498168,0.660894660894661,33.9264232775895
1743439198905,12:39:58.905,-1,-1,1287.91208791209,0.661338661338661,33.9264232775895
1743439198924,12:39:58.924,-1,-1,1278.38827838828,0.664446664446664,33.9264232775895
1743439198944,12:39:58.944,-1,-1,1256.41025641026,0.667554667554667,33.9264232775895
1743439198963,12:39:58.963,-1,-1,1249.08424908425,0.666666666666667,33.9264232775895
1743439198983,12:39:58.983,-1,-1,1254.21245421245,0.662670662670663,33.9264232775895
1743439199002,12:39:59.002,-1,-1,1246.88644688645,0.659562659562659,33.9264232775895
1743439199022,12:39:59.022,-1,-1,1232.23443223443,0.66045066045066,33.9264232775895
1743439199041,12:39:59.041,-1,-1,1246.15384615385,0.664446664446664,33.9264232775895
1743439199061,12:39:59.061,-1,-1,1293.04029304029,0.667110667110667,33.9264232775895
1743439199080,12:39:59.080,-1,-1,1367.76556776557,0.665778665778666,33.9264232775895
1743439199100,12:39:59.100,-1,-1,1472.52747252747,0.661782661782662,33.9264232775895
1743439199119,12:39:59.119,-1,-1,1591.94139194139,0.658674658674659,33.9264232775895
1743439199139,12:39:59.139,-1,-1,1686.44688644689,0.66000666000666,33.9264232775895
1743439199158,12:39:59.158,-1,-1,1761.17216117216,0.664002664002664,33.9264232775895
1743439199178,12:39:59.178,-1,-1,1805.86080586081,0.666222666222666,33.9264232775895
1743439199197,12:39:59.197,-1,-1,1808.05860805861,0.664890664890665,33.9264232775895
1743439199217,12:39:59.217,-1,-1,1803.663003663,0.66000666000666,33.9264232775895
1743439199236,12:39:59.236,-1,-1,1794.13919413919,0.658230658230658,33.9264232775895
1743439199256,12:39:59.256,-1,-1,1798.5347985348,0.659562659562659,33.9264232775895
1743439199275,12:39:59.275,-1,-1,1801.4652014652,0.664002664002664,33.9264232775895
1743439199295,12:39:59.295,-1,-1,1776.55677655678,0.665778665778666,33.9264232775895
1743439199314,12:39:59.314,-1,-1,1732.60073260073,0.663558663558663,33.9264232775895
1743439199334,12:39:59.334,-1,-1,1680.58608058608,0.659118659118659,33.9264232775895
1743439199353,12:39:59.353,-1,-1,1646.15384615385,0.657342657342657,33.9264232775895
1743439199373,12:39:59.373,-1,-1,1617.58241758242,0.659118659118659,33.9264232775895
1743439199392,12:39:59.392,-1,-1,1578.75457875458,0.663558663558663,33.9264232775895
1743439199412,12:39:59.412,-1,-1,1545.05494505494,0.664890664890665,33.9264232775895
1743439199431,12:39:59.431,-1,-1,1505.49450549451,0.662670662670663,33.9264232775895
1743439199451,12:39:59.451,-1,-1,1486.44688644689,0.657786657786658,33.9264232775895
1743439199470,12:39:59.470,-1,-1,1481.31868131868,0.656898656898657,33.9264232775895
1743439199490,12:39:59.490,-1,-1,1470.32967032967,0.658674658674659,33.9264232775895
1743439199509,12:39:59.509,-1,-1,1466.66666666667,0.663114663114663,33.9264232775895
1743439199529,12:39:59.529,-1,-1,1455.67765567766,0.663558663558663,33.9264232775895
1743439199548,12:39:59.548,-1,-1,1427.10622710623,0.661338661338661,33.9264232775895
1743439199568,12:39:59.568,-1,-1,1386.81318681319,0.656454656454656,33.9264232775895
1743439199587,12:39:59.587,-1,-1,1342.12454212454,0.655566655566655,33.9264232775895
1743439199607,12:39:59.607,-1,-1,1304.0293040293,0.657786657786658,33.9264232775895
1743439199626,12:39:59.626,-1,-1,1283.51648351648,0.662670662670663,33.9264232775895
1743439199646,12:39:59.646,-1,-1,1276.92307692308,0.662670662670663,33.9264232775895
1743439199665,12:39:59.665,-1,-1,1271.79487179487,0.66045066045066,33.9264232775895
1743439199685,12:39:59.685,-1,-1,1250.54945054945,0.656010656010656,33.9264232775895
1743439199704,12:39:59.704,-1,-1,1239.56043956044,0.655566655566655,33.9264232775895
1743439199724,12:39:59.724,-1,-1,1235.16483516484,0.657786657786658,33.9264232775895
1743439199743,12:39:59.743,-1,-1,1230.76923076923,0.662226662226662,33.9264232775895
1743439199763,12:39:59.763,-1,-1,1219.04761904762,0.662226662226662,33.9264232775895
1743439199782,12:39:59.782,-1,-1,1199.2673992674,0.659562659562659,33.9264232775895
1743439199802,12:39:59.802,-1,-1,1202.1978021978,0.655122655122655,33.9214205178432
1743439199821,12:39:59.821,-1,-1,1222.71062271062,0.655122655122655,33.9214205178432
1743439199841,12:39:59.841,-1,-1,1239.56043956044,0.657786657786658,33.9214205178432
1743439199860,12:39:59.860,-1,-1,1247.61904761905,0.661782661782662,33.9214205178432
1743439199880,12:39:59.880,-1,-1,1242.49084249084,0.661338661338661,33.9214205178432
1743439199899,12:39:59.899,-1,-1,1227.10622710623,0.658230658230658,33.9214205178432
1743439199919,12:39:59.919,-1,-1,1204.3956043956,0.654234654234654,33.9214205178432
1743439199938,12:39:59.938,-1,-1,1183.15018315018,0.655122655122655,33.9214205178432
1743439199958,12:39:59.958,-1,-1,1198.5347985348,0.658230658230658,33.9214205178432
1743439199977,12:39:59.977,-1,-1,1256.41025641026,0.661338661338661,33.9214205178432
1743439199997,12:39:59.997,-1,-1,1347.25274725275,0.660894660894661,33.9214205178432
1743439200016,12:40:00.016,-1,-1,1449.08424908425,0.657342657342657,33.9214205178432
1743439200036,12:40:00.036,-1,-1,1546.52014652015,0.653346653346653,33.9214205178432
1743439200055,12:40:00.055,-1,-1,1627.10622710623,0.654234654234654,33.9214205178432
1743439200075,12:40:00.075,-1,-1,1684.98168498168,0.657786657786658,33.9214205178432
1743439200094,12:40:00.094,-1,-1,1715.75091575092,0.660894660894661,33.9214205178432
1743439200114,12:40:00.114,-1,-1,1712.82051282051,0.659562659562659,33.9214205178432
1743439200133,12:40:00.133,-1,-1,1706.95970695971,0.656010656010656,33.9214205178432
1743439200153,12:40:00.153,-1,-1,1704.0293040293,0.652458652458652,33.9214205178432
1743439200172,12:40:00.172,-1,-1,1703.2967032967,0.653790653790654,33.9214205178432
1743439200192,12:40:00.192,-1,-1,1694.50549450549,0.657786657786658,33.9214205178432
1743439200211,12:40:00.211,-1,-1,1665.93406593407,0.66000666000666,33.9214205178432
1743439200231,12:40:00.231,-1,-1,1619.04761904762,0.659118659118659,33.9214205178432
1743439200250,12:40:00.250,-1,-1,1575.82417582418,0.655122655122655,33.9214205178432
1743439200270,12:40:00.270,-1,-1,1531.13553113553,0.652458652458652,33.9214205178432
1743439200289,12:40:00.289,-1,-1,1494.50549450549,0.653790653790654,33.9214205178432
1743439200309,12:40:00.309,-1,-1,1468.86446886447,0.658230658230658,33.9214205178432
1743439200328,12:40:00.328,-1,-1,1444.68864468864,0.66000666000666,33.9214205178432
1743439200348,12:40:00.348,-1,-1,1433.69963369963,0.658230658230658,33.9214205178432
1743439200367,12:40:00.367,-1,-1,1414.65201465201,0.653790653790654,33.9214205178432
1743439200387,12:40:00.387,-1,-1,1387.54578754579,0.652014652014652,33.9214205178432
1743439200406,12:40:00.406,-1,-1,1372.89377289377,0.653346653346653,33.9214205178432
1743439200426,12:40:00.426,-1,-1,1358.97435897436,0.657786657786658,33.9214205178432
1743439200445,12:40:00.445,-1,-1,1344.32234432234,0.659118659118659,33.9214205178432
1743439200465,12:40:00.465,-1,-1,1325.27472527473,0.657342657342657,33.9214205178432
1743439200484,12:40:00.484,-1,-1,1295.9706959707,0.652902652902653,33.9214205178432
1743439200504,12:40:00.504,-1,-1,1268.86446886447,0.651126651126651,33.9214205178432
1743439200523,12:40:00.523,-1,-1,1247.61904761905,0.652902652902653,33.9214205178432
1743439200543,12:40:00.543,-1,-1,1232.23443223443,0.657786657786658,33.9214205178432
1743439200562,12:40:00.562,-1,-1,1221.97802197802,0.658230658230658,33.9214205178432
1743439200582,12:40:00.582,65,-1,1213.91941391941,0.656454656454656,33.9214205178432
1743439200601,12:40:00.601,65,-1,1192.67399267399,0.651570651570651,33.9214205178432
1743439200621,12:40:00.621,65,-1,1181.68498168498,0.650682650682651,33.9214205178432
1743439200640,12:40:00.640,65,-1,1177.28937728938,0.652902652902653,33.9214205178432
1743439200660,12:40:00.660,65,-1,1176.55677655678,0.657342657342657,33.9214205178432
1743439200679,12:40:00.679,65,-1,1180.95238095238,0.657342657342657,33.9214205178432
1743439200699,12:40:00.699,65,-1,1192.67399267399,0.655566655566655,33.9214205178432
1743439200718,12:40:00.718,65,-1,1194.87179487179,0.65023865023865,33.9214205178432
1743439200738,12:40:00.738,65,-1,1179.48717948718,0.65023865023865,33.9214205178432
1743439200757,12:40:00.757,65,-1,1163.36996336996,0.652458652458652,33.9214205178432
1743439200777,12:40:00.777,65,-1,1147.98534798535,0.656898656898657,33.9214205178432
1743439200796,12:40:00.796,65,-1,1147.25274725275,0.656898656898657,33.9264232775895
1743439200816,12:40:00.816,65,-1,1150.18315018315,0.654234654234654,33.9264232775895
1743439200835,12:40:00.835,65,-1,1150.18315018315,0.64979464979465,33.9264232775895
1743439200855,12:40:00.855,65,-1,1155.31135531136,0.64979464979465,33.9264232775895
1743439200874,12:40:00.874,65,-1,1162.63736263736,0.652458652458652,33.9264232775895
1743439200894,12:40:00.894,65,-1,1183.15018315018,0.656454656454656,33.9264232775895
1743439200913,12:40:00.913,65,-1,1227.10622710623,0.656010656010656,33.9264232775895
1743439200933,12:40:00.933,65,-1,1292.30769230769,0.653346653346653,33.9264232775895
1743439200952,12:40:00.952,65,-1,1361.17216117216,0.649350649350649,33.9264232775895
1743439200972,12:40:00.972,65,-1,1426.37362637363,0.649350649350649,33.9264232775895
1743439200991,12:40:00.991,65,-1,1483.51648351648,0.652458652458652,33.9264232775895
1743439201011,12:40:01.011,65,-1,1520.87912087912,0.656010656010656,33.9264232775895
1743439201030,12:40:01.030,65,-1,1536.99633699634,0.655566655566655,33.9264232775895
1743439201050,12:40:01.050,65,-1,1531.13553113553,0.652458652458652,33.9264232775895
1743439201069,12:40:01.069,65,-1,1530.40293040293,0.648462648462648,33.9264232775895
1743439201089,12:40:01.089,65,-1,1531.86813186813,0.649350649350649,33.9264232775895
1743439201108,12:40:01.108,65,-1,1523.80952380952,0.652458652458652,33.9264232775895
1743439201128,12:40:01.128,65,-1,1512.82051282051,0.655566655566655,33.9264232775895
1743439201147,12:40:01.147,65,-1,1476.19047619048,0.654678654678655,33.9264232775895
1743439201167,12:40:01.167,65,-1,1443.22344322344,0.651126651126651,33.9264232775895
1743439201186,12:40:01.186,65,-1,1410.25641025641,0.648018648018648,33.9264232775895
1743439201206,12:40:01.206,65,-1,1391.20879120879,0.648906648906649,33.9264232775895
1743439201225,12:40:01.225,65,-1,1376.55677655678,0.652458652458652,33.9264232775895
1743439201245,12:40:01.245,65,-1,1369.96336996337,0.655122655122655,33.9264232775895
1743439201264,12:40:01.264,65,-1,1361.90476190476,0.654234654234654,33.9264232775895
1743439201284,12:40:01.284,65,-1,1347.25274725275,0.64979464979465,33.9264232775895
1743439201303,12:40:01.303,65,-1,1334.79853479853,0.647130647130647,33.9264232775895
1743439201323,12:40:01.323,65,-1,1320.14652014652,0.648906648906649,33.9264232775895
1743439201342,12:40:01.342,65,-1,1305.49450549451,0.652458652458652,33.9264232775895
1743439201362,12:40:01.362,65,-1,1276.92307692308,0.654678654678655,33.9264232775895
1743439201381,12:40:01.381,65,-1,1243.22344322344,0.653346653346653,33.9264232775895
1743439201401,12:40:01.401,68,-1,1213.18681318681,0.648906648906649,33.9264232775895
1743439201420,12:40:01.420,68,-1,1200.7326007326,0.646686646686647,33.9264232775895
1743439201440,12:40:01.440,68,-1,1183.88278388278,0.648018648018648,33.9264232775895
1743439201459,12:40:01.459,68,-1,1183.88278388278,0.652458652458652,33.9264232775895
1743439201479,12:40:01.479,68,-1,1194.87179487179,0.654234654234654,33.9264232775895
1743439201498,12:40:01.498,68,-1,1206.59340659341,0.652458652458652,33.9264232775895
1743439201518,12:40:01.518,68,-1,1213.91941391941,0.647574647574647,33.9264232775895
1743439201537,12:40:01.537,68,-1,1208.79120879121,0.645798645798646,33.9264232775895
1743439201557,12:40:01.557,68,-1,1200,0.648018648018648,33.9264232775895
1743439201576,12:40:01.576,68,-1,1182.41758241758,0.652458652458652,33.9264232775895
1743439201596,12:40:01.596,68,-1,1170.69597069597,0.653346653346653,33.9264232775895
1743439201615,12:40:01.615,68,-1,1154.57875457875,0.651570651570651,33.9264232775895
1743439201635,12:40:01.635,68,-1,1143.58974358974,0.647130647130647,33.9264232775895
1743439201654,12:40:01.654,68,-1,1128.93772893773,0.645798645798646,33.9264232775895
1743439201674,12:40:01.674,68,-1,1130.40293040293,0.647574647574647,33.9264232775895
1743439201693,12:40:01.693,68,-1,1142.85714285714,0.652458652458652,33.9264232775895
1743439201713,12:40:01.713,68,-1,1169.23076923077,0.652902652902653,33.9264232775895
1743439201732,12:40:01.732,68,-1,1213.91941391941,0.651126651126651,33.9264232775895
1743439201752,12:40:01.752,68,-1,1262.27106227106,0.646242646242646,33.9264232775895
1743439201771,12:40:01.771,68,-1,1316.48351648352,0.645798645798646,33.9264232775895
1743439201791,12:40:01.791,68,-1,1377.28937728938,0.648018648018648,33.9264232775895
1743439201810,12:40:01.810,68,-1,1435.16483516484,0.652014652014652,33.9264232775895
1743439201830,12:40:01.830,68,-1,1478.38827838828,0.652458652458652,33.9264232775895
1743439201849,12:40:01.849,68,-1,1504.0293040293,0.65023865023865,33.9264232775895
1743439201869,12:40:01.869,68,-1,1507.69230769231,0.645354645354645,33.9264232775895
1743439201888,12:40:01.888,68,-1,1503.2967032967,0.644910644910645,33.9264232775895
1743439201908,12:40:01.908,68,-1,1495.9706959707,0.647574647574647,33.9264232775895
1743439201927,12:40:01.927,68,-1,1482.05128205128,0.651570651570651,33.9264232775895
1743439201947,12:40:01.947,68,-1,1460.80586080586,0.651570651570651,33.9264232775895
1743439201966,12:40:01.966,68,-1,1435.89743589744,0.648906648906649,33.9264232775895
1743439201986,12:40:01.986,68,-1,1400,0.644466644466644,33.9264232775895
1743439202005,12:40:02.005,68,-1,1374.35897435897,0.644466644466644,33.9264232775895
1743439202025,12:40:02.025,68,-1,1367.76556776557,0.647574647574647,33.9264232775895
1743439202044,12:40:02.044,68,-1,1355.31135531136,0.651126651126651,33.9264232775895
1743439202064,12:40:02.064,68,-1,1338.46153846154,0.650682650682651,33.9264232775895
1743439202083,12:40:02.083,68,-1,1328.20512820513,0.647574647574647,33.9264232775895
1743439202103,12:40:02.103,68,-1,1319.41391941392,0.644022644022644,33.9264232775895
1743439202122,12:40:02.122,68,-1,1307.69230769231,0.644466644466644,33.9264232775895
1743439202142,12:40:02.142,68,-1,1297.4358974359,0.647574647574647,33.9264232775895
1743439202161,12:40:02.161,68,-1,1285.71428571429,0.650682650682651,33.9264232775895
1743439202181,12:40:02.181,68,-1,1253.47985347985,0.65023865023865,33.9264232775895
1743439202200,12:40:02.200,68,-1,1233.69963369963,0.646686646686647,33.9264232775895
1743439202220,12:40:02.220,68,-1,1223.44322344322,0.643134643134643,33.9264232775895
1743439202239,12:40:02.239,68,-1,1217.58241758242,0.643578643578643,33.9264232775895
1743439202259,12:40:02.259,73,-1,1224.17582417582,0.647130647130647,33.9264232775895
1743439202278,12:40:02.278,73,-1,1232.96703296703,0.65023865023865,33.9264232775895
1743439202298,12:40:02.298,73,-1,1234.43223443223,0.648906648906649,33.9264232775895
1743439202317,12:40:02.317,73,-1,1224.17582417582,0.645354645354645,33.9264232775895
1743439202337,12:40:02.337,73,-1,1200,0.642690642690643,33.9264232775895
1743439202356,12:40:02.356,73,-1,1191.94139194139,0.643578643578643,33.9264232775895
1743439202376,12:40:02.376,73,-1,1191.20879120879,0.647574647574647,33.9264232775895
1743439202395,12:40:02.395,73,-1,1188.27838827839,0.65023865023865,33.9264232775895
1743439202415,12:40:02.415,73,-1,1174.35897435897,0.648462648462648,33.9264232775895
1743439202434,12:40:02.434,73,-1,1176.55677655678,0.644466644466644,33.9264232775895
1743439202454,12:40:02.454,73,-1,1169.96336996337,0.641802641802642,33.9264232775895
1743439202473,12:40:02.473,73,-1,1162.63736263736,0.643134643134643,33.9264232775895
1743439202493,12:40:02.493,73,-1,1156.77655677656,0.647130647130647,33.9264232775895
1743439202512,12:40:02.512,73,-1,1153.11355311355,0.649350649350649,33.9264232775895
1743439202532,12:40:02.532,73,-1,1156.04395604396,0.647574647574647,33.9264232775895
1743439202551,12:40:02.551,73,-1,1147.98534798535,0.642690642690643,33.9264232775895
1743439202571,12:40:02.571,73,-1,1147.98534798535,0.640914640914641,33.9264232775895
1743439202590,12:40:02.590,73,-1,1162.63736263736,0.642690642690643,33.9264232775895
1743439202610,12:40:02.610,73,-1,1189.74358974359,0.646686646686647,33.9264232775895
1743439202629,12:40:02.629,73,-1,1227.10622710623,0.648018648018648,33.9264232775895
1743439202649,12:40:02.649,73,-1,1258.60805860806,0.646242646242646,33.9264232775895
1743439202668,12:40:02.668,73,-1,1301.0989010989,0.641802641802642,33.9264232775895
1743439202688,12:40:02.688,73,-1,1341.39194139194,0.64047064047064,33.9264232775895
1743439202707,12:40:02.707,73,-1,1364.10256410256,0.641802641802642,33.9264232775895
1743439202727,12:40:02.727,73,-1,1382.41758241758,0.646242646242646,33.9264232775895
1743439202746,12:40:02.746,73,-1,1409.52380952381,0.647574647574647,33.9264232775895
1743439202766,12:40:02.766,73,-1,1421.24542124542,0.645354645354645,33.9264232775895
1743439202785,12:40:02.785,73,-1,1415.38461538462,0.64047064047064,33.9264232775895
1743439202805,12:40:02.805,73,-1,1416.11721611722,0.63958263958264,33.9264232775895
1743439202824,12:40:02.824,73,-1,1413.91941391941,0.641358641358641,33.9264232775895
1743439202844,12:40:02.844,73,-1,1403.663003663,0.645798645798646,33.9264232775895
1743439202863,12:40:02.863,73,-1,1396.336996337,0.646242646242646,33.9264232775895
1743439202883,12:40:02.883,73,-1,1373.62637362637,0.644022644022644,33.9264232775895
1743439202903,12:40:02.902,73,-1,1347.98534798535,0.63958263958264,33.9264232775895
1743439202922,12:40:02.922,73,-1,1334.06593406593,0.638694638694639,33.9264232775895
1743439202942,12:40:02.941,73,-1,1327.47252747253,0.640914640914641,33.9264232775895
1743439202961,12:40:02.961,73,-1,1314.28571428571,0.645354645354645,33.9264232775895
1743439202981,12:40:02.980,73,-1,1284.98168498168,0.645798645798646,33.9264232775895
1743439203000,12:40:03.000,73,-1,1262.27106227106,0.643134643134643,33.9264232775895
1743439203020,12:40:03.020,73,-1,1261.53846153846,0.638250638250638,33.9264232775895
1743439203039,12:40:03.039,73,-1,1268.13186813187,0.638694638694639,33.9264232775895
1743439203059,12:40:03.059,73,-1,1270.32967032967,0.640914640914641,33.9264232775895
1743439203078,12:40:03.078,73,-1,1261.53846153846,0.644910644910645,33.9264232775895
1743439203098,12:40:03.098,73,-1,1252.01465201465,0.644466644466644,33.9264232775895
1743439203117,12:40:03.117,73,-1,1247.61904761905,0.641802641802642,33.9264232775895
1743439203137,12:40:03.137,70,-1,1229.30402930403,0.637362637362637,33.9264232775895
1743439203156,12:40:03.156,70,-1,1207.32600732601,0.637806637806638,33.9264232775895
1743439203176,12:40:03.176,70,-1,1194.87179487179,0.64047064047064,33.9264232775895
1743439203195,12:40:03.195,70,-1,1200,0.644466644466644,33.9264232775895
1743439203215,12:40:03.215,70,-1,1204.3956043956,0.643578643578643,33.9264232775895
1743439203234,12:40:03.234,70,-1,1200.7326007326,0.64047064047064,33.9264232775895
1743439203254,12:40:03.254,70,-1,1205.86080586081,0.636474636474636,33.9264232775895
1743439203273,12:40:03.273,70,-1,1210.25641025641,0.636918636918637,33.9264232775895
1743439203293,12:40:03.293,70,-1,1215.38461538462,0.64047064047064,33.9264232775895
1743439203312,12:40:03.312,70,-1,1208.79120879121,0.643578643578643,33.9264232775895
1743439203332,12:40:03.332,70,-1,1206.59340659341,0.642690642690643,33.9264232775895
1743439203351,12:40:03.351,70,-1,1202.9304029304,0.638694638694639,33.9264232775895
1743439203371,12:40:03.371,70,-1,1191.94139194139,0.635142635142635,33.9264232775895
1743439203390,12:40:03.390,70,-1,1186.81318681319,0.636030636030636,33.9264232775895
1743439203410,12:40:03.410,70,-1,1175.82417582418,0.64002664002664,33.9264232775895
1743439203429,12:40:03.429,70,-1,1167.76556776557,0.642690642690643,33.9264232775895
1743439203449,12:40:03.449,70,-1,1164.10256410256,0.641358641358641,33.9264232775895
1743439203468,12:40:03.468,70,-1,1164.83516483516,0.637362637362637,33.9264232775895
1743439203488,12:40:03.488,70,-1,1183.88278388278,0.634254634254634,33.9264232775895
1743439203507,12:40:03.507,70,-1,1210.25641025641,0.635586635586636,33.9264232775895
1743439203527,12:40:03.527,70,-1,1237.36263736264,0.63958263958264,33.9264232775895
1743439203546,12:40:03.546,70,-1,1252.01465201465,0.641802641802642,33.9264232775895
1743439203566,12:40:03.566,70,-1,1293.77289377289,0.640914640914641,33.9264232775895
1743439203585,12:40:03.585,70,-1,1332.60073260073,0.636474636474636,33.9264232775895
1743439203605,12:40:03.605,70,-1,1361.90476190476,0.634254634254634,33.9264232775895
1743439203624,12:40:03.624,70,-1,1394.13919413919,0.636030636030636,33.9264232775895
1743439203644,12:40:03.644,70,-1,1407.32600732601,0.63958263958264,33.9264232775895
1743439203663,12:40:03.663,70,-1,1427.10622710623,0.641802641802642,33.9264232775895
1743439203683,12:40:03.683,70,-1,1438.82783882784,0.64047064047064,33.9264232775895
1743439203702,12:40:03.702,70,-1,1439.56043956044,0.635586635586636,33.9264232775895
1743439203722,12:40:03.722,70,-1,1448.35164835165,0.634254634254634,33.9264232775895
1743439203741,12:40:03.741,70,-1,1439.56043956044,0.635586635586636,33.9264232775895
1743439203761,12:40:03.761,70,-1,1417.58241758242,0.64002664002664,33.9264232775895
1743439203780,12:40:03.780,70,-1,1418.31501831502,0.640914640914641,33.9264232775895
1743439203800,12:40:03.800,70,-1,1413.91941391941,0.639138639138639,33.9264232775895
1743439203819,12:40:03.819,70,-1,1400,0.635142635142635,33.9264232775895
1743439203839,12:40:03.839,70,-1,1381.68498168498,0.632922632922633,33.9264232775895
1743439203858,12:40:03.858,70,-1,1364.83516483516,0.634698634698635,33.9264232775895
1743439203878,12:40:03.878,70,-1,1360.43956043956,0.64047064047064,33.9264232775895
1743439203897,12:40:03.897,70,-1,1361.90476190476,0.643578643578643,33.9264232775895
1743439203917,12:40:03.917,70,-1,1358.97435897436,0.641802641802642,33.9264232775895
1743439203936,12:40:03.936,70,-1,1354.57875457875,0.628038628038628,33.9264232775895
1743439203956,12:40:03.956,70,-1,1355.31135531136,0.622710622710623,33.9264232775895
1743439203975,12:40:03.975,70,-1,1333.33333333333,0.621378621378621,33.9264232775895
1743439203995,12:40:03.995,70,-1,1298.9010989011,0.623154623154623,33.9264232775895
1743439204014,12:40:04.014,70,-1,1287.91208791209,0.622266622266622,33.9264232775895
1743439204034,12:40:04.034,70,-1,1290.84249084249,0.620490620490621,33.9264232775895
1743439204053,12:40:04.053,68,-1,1298.1684981685,0.615606615606616,33.9264232775895
1743439204073,12:40:04.073,68,-1,1291.57509157509,0.614274614274614,33.9264232775895
1743439204092,12:40:04.092,68,-1,1273.99267399267,0.614718614718615,33.9264232775895
1743439204112,12:40:04.112,68,-1,1263.73626373626,0.616938616938617,33.9264232775895
1743439204131,12:40:04.131,68,-1,1260.07326007326,0.616938616938617,33.9264232775895
1743439204151,12:40:04.151,68,-1,1256.41025641026,0.617826617826618,33.9264232775895
1743439204170,12:40:04.170,68,-1,1254.21245421245,0.616494616494616,33.9264232775895
1743439204190,12:40:04.190,68,-1,1249.08424908425,0.617382617382617,33.9264232775895
1743439204209,12:40:04.209,68,-1,1235.89743589744,0.620490620490621,33.9264232775895
1743439204229,12:40:04.229,68,-1,1234.43223443223,0.624042624042624,33.9264232775895
1743439204248,12:40:04.248,68,-1,1229.30402930403,0.623598623598624,33.9264232775895
1743439204268,12:40:04.268,68,-1,1232.23443223443,0.621378621378621,33.9264232775895
1743439204287,12:40:04.287,68,-1,1237.36263736264,0.617826617826618,33.9264232775895
1743439204307,12:40:04.307,68,-1,1235.16483516484,0.618270618270618,33.9264232775895
1743439204326,12:40:04.326,68,-1,1235.16483516484,0.621378621378621,33.9264232775895
1743439204346,12:40:04.346,68,-1,1240.29304029304,0.625374625374625,33.9264232775895
1743439204365,12:40:04.365,68,-1,1230.76923076923,0.624930624930625,33.9264232775895
1743439204385,12:40:04.385,68,-1,1205.86080586081,0.621822621822622,33.9264232775895
1743439204404,12:40:04.404,68,-1,1194.13919413919,0.617826617826618,33.9264232775895
1743439204424,12:40:04.424,68,-1,1202.1978021978,0.618714618714619,33.9264232775895
1743439204443,12:40:04.443,68,-1,1214.65201465201,0.622266622266622,33.9264232775895
1743439204463,12:40:04.463,68,-1,1221.24542124542,0.625818625818626,33.9264232775895
1743439204482,12:40:04.482,68,-1,1240.29304029304,0.624486624486625,33.9264232775895
1743439204502,12:40:04.502,68,-1,1257.87545787546,0.620490620490621,33.9264232775895
1743439204521,12:40:04.521,68,-1,1289.37728937729,0.616494616494616,33.9264232775895
1743439204541,12:40:04.541,68,-1,1331.13553113553,0.617382617382617,33.9264232775895
1743439204560,12:40:04.560,68,-1,1380.95238095238,0.620934620934621,33.9264232775895
1743439204580,12:40:04.580,68,-1,1427.10622710623,0.623154623154623,33.9264232775895
1743439204599,12:40:04.599,68,-1,1468.86446886447,0.620934620934621,33.9264232775895
1743439204619,12:40:04.619,68,-1,1494.50549450549,0.613830613830614,33.9264232775895
1743439204638,12:40:04.638,68,-1,1499.6336996337,0.601842601842602,33.9264232775895
1743439204658,12:40:04.658,68,-1,1512.08791208791,0.592518592518593,33.9264232775895
1743439204677,12:40:04.677,68,-1,1524.54212454212,0.588078588078588,33.9264232775895
1743439204697,12:40:04.697,68,-1,1512.08791208791,0.581418581418581,33.9264232775895
1743439204716,12:40:04.716,68,-1,1503.2967032967,0.571650571650572,33.9264232775895
1743439204736,12:40:04.736,68,-1,1497.4358974359,0.558774558774559,33.9264232775895
1743439204755,12:40:04.755,68,-1,1479.12087912088,0.552558552558552,33.9264232775895
1743439204775,12:40:04.775,68,-1,1450.54945054945,0.553446553446553,33.9264232775895
1743439204794,12:40:04.794,68,-1,1422.71062271062,0.559218559218559,33.9264232775895
1743439204814,12:40:04.814,68,-1,1410.25641025641,0.556998556998557,33.9264232775895
1743439204833,12:40:04.833,68,-1,1390.47619047619,0.542346542346542,33.9264232775895
1743439204853,12:40:04.853,68,-1,1380.21978021978,0.531246531246531,33.9264232775895
1743439204872,12:40:04.872,68,-1,1387.54578754579,0.522366522366522,33.9264232775895
1743439204892,12:40:04.892,68,-1,1387.54578754579,0.521034521034521,33.9264232775895
1743439204911,12:40:04.911,68,-1,1378.02197802198,0.521478521478521,33.9264232775895
1743439204931,12:40:04.931,68,-1,1370.69597069597,0.517038517038517,33.9264232775895
1743439204950,12:40:04.950,68,-1,1353.11355311355,0.505050505050505,33.9264232775895
1743439204970,12:40:04.970,68,-1,1333.33333333333,0.493506493506494,33.9264232775895
1743439204989,12:40:04.989,65,-1,1330.40293040293,0.492174492174492,33.9264232775895
1743439205009,12:40:05.009,65,-1,1334.79853479853,0.495726495726496,33.9264232775895
1743439205028,12:40:05.028,65,-1,1334.06593406593,0.501498501498502,33.9264232775895
1743439205048,12:40:05.048,65,-1,1318.68131868132,0.502386502386502,33.9264232775895
1743439205067,12:40:05.067,65,-1,1296.7032967033,0.501054501054501,33.9264232775895
1743439205087,12:40:05.087,65,-1,1279.12087912088,0.494394494394494,33.9264232775895
1743439205106,12:40:05.106,65,-1,1269.59706959707,0.493506493506494,33.9264232775895
1743439205126,12:40:05.126,65,-1,1259.34065934066,0.495726495726496,33.9264232775895
1743439205145,12:40:05.145,65,-1,1272.52747252747,0.496614496614497,33.9264232775895
1743439205165,12:40:05.165,65,-1,1281.31868131868,0.48951048951049,33.9264232775895
1743439205184,12:40:05.184,65,-1,1283.51648351648,0.48018648018648,33.9264232775895
1743439205204,12:40:05.204,65,-1,1286.44688644689,0.465978465978466,33.9264232775895
1743439205223,12:40:05.223,65,-1,1290.10989010989,0.457986457986458,33.9264232775895
1743439205243,12:40:05.243,65,-1,1290.84249084249,0.44022644022644,33.9264232775895
1743439205262,12:40:05.262,65,-1,1283.51648351648,0.413586413586413,33.9264232775895
1743439205282,12:40:05.282,65,-1,1279.85347985348,0.375846375846376,33.9264232775895
1743439205301,12:40:05.301,65,-1,1273.99267399267,0.269286269286269,33.9264232775895
1743439205321,12:40:05.321,65,-1,1265.20146520147,0.251082251082251,33.9264232775895
1743439205340,12:40:05.340,65,-1,1278.38827838828,0.237318237318237,33.9264232775895
1743439205360,12:40:05.360,65,-1,1275.45787545788,0.223998223998224,33.9264232775895
1743439205379,12:40:05.379,65,-1,1266.66666666667,0.212010212010212,33.9264232775895
1743439205399,12:40:05.399,65,-1,1273.99267399267,0.196026196026196,33.9264232775895
1743439205418,12:40:05.418,65,-1,1291.57509157509,0.212898212898213,33.9264232775895
1743439205438,12:40:05.438,65,-1,1330.40293040293,0.223554223554223,33.9264232775895
1743439205457,12:40:05.457,65,-1,1383.88278388278,0.238206238206238,33.9264232775895
1743439205477,12:40:05.477,65,-1,1432.23443223443,0.277722277722278,33.9264232775895
1743439205496,12:40:05.496,65,-1,1487.91208791209,0.267066267066267,33.9264232775895
1743439205516,12:40:05.516,65,-1,1538.46153846154,0.292818292818293,33.9264232775895
1743439205535,12:40:05.535,65,-1,1564.10256410256,0.328782328782329,33.9264232775895
1743439205555,12:40:05.555,65,-1,1572.89377289377,0.354090354090354,33.9264232775895
1743439205574,12:40:05.574,65,-1,1564.10256410256,0.366522366522366,33.9264232775895
1743439205594,12:40:05.594,65,-1,1555.31135531136,0.375846375846376,33.9264232775895
1743439205613,12:40:05.613,65,-1,1529.67032967033,0.383394383394383,33.9264232775895
1743439205633,12:40:05.633,65,-1,1501.0989010989,0.386502386502386,33.9264232775895
1743439205652,12:40:05.652,65,-1,1471.79487179487,0.387834387834388,33.9264232775895
1743439205672,12:40:05.672,65,-1,1453.47985347985,0.387390387390387,33.9264232775895
1743439205691,12:40:05.691,65,-1,1438.09523809524,0.39049839049839,33.9264232775895
1743439205711,12:40:05.711,65,-1,1426.37362637363,0.394938394938395,33.9264232775895
1743439205730,12:40:05.730,65,-1,1432.23443223443,0.405150405150405,33.9264232775895
1743439205750,12:40:05.750,65,-1,1432.23443223443,0.41047841047841,33.9264232775895
1743439205769,12:40:05.769,65,-1,1428.57142857143,0.410922410922411,33.9264232775895
1743439205789,12:40:05.789,64,-1,1421.97802197802,0.409590409590409,33.9264232775895
1743439205808,12:40:05.808,64,-1,1411.72161172161,0.412254412254412,33.9264232775895
1743439205828,12:40:05.828,64,-1,1395.6043956044,0.416694416694417,33.9264232775895
1743439205847,12:40:05.847,64,-1,1388.27838827839,0.41980241980242,33.9264232775895
1743439205867,12:40:05.867,64,-1,1362.63736263736,0.41980241980242,33.9264232775895
1743439205886,12:40:05.886,64,-1,1355.31135531136,0.415362415362415,33.9264232775895
1743439205906,12:40:05.906,64,-1,1349.45054945055,0.411366411366411,33.9264232775895
1743439205925,12:40:05.925,64,-1,1333.33333333333,0.41003441003441,33.9264232775895
1743439205945,12:40:05.945,64,-1,1327.47252747253,0.407814407814408,33.9264232775895
1743439205964,12:40:05.964,64,-1,1323.80952380952,0.396714396714397,33.9264232775895
1743439205984,12:40:05.984,64,-1,1323.07692307692,0.380730380730381,33.9264232775895
1743439206003,12:40:06.003,64,-1,1332.60073260073,0.355866355866356,33.9264232775895
1743439206023,12:40:06.023,64,-1,1331.86813186813,0.314574314574315,33.9264232775895
1743439206042,12:40:06.042,64,-1,1323.80952380952,0.287490287490287,33.9264232775895
1743439206062,12:40:06.062,64,-1,1324.54212454212,0.283938283938284,33.9264232775895
1743439206081,12:40:06.081,64,-1,1322.34432234432,0.303030303030303,33.9264232775895
1743439206101,12:40:06.101,64,-1,1303.2967032967,0.307026307026307,33.9264232775895
1743439206120,12:40:06.120,64,-1,1290.84249084249,0.312798312798313,33.9264232775895
1743439206140,12:40:06.140,64,-1,1284.98168498168,0.307914307914308,33.9264232775895
1743439206159,12:40:06.159,64,-1,1275.45787545788,0.275058275058275,33.9264232775895
1743439206179,12:40:06.179,64,-1,1270.32967032967,0.26973026973027,33.9264232775895
1743439206198,12:40:06.198,64,-1,1290.84249084249,0.26973026973027,33.9264232775895
1743439206218,12:40:06.218,64,-1,1342.12454212454,0.243978243978244,33.9264232775895
1743439206237,12:40:06.237,64,-1,1402.1978021978,0.21023421023421,33.9264232775895
1743439206257,12:40:06.257,64,-1,1454.21245421245,0.177378177378177,33.9264232775895
1743439206276,12:40:06.276,64,-1,1524.54212454212,0.137862137862138,33.9264232775895
1743439206296,12:40:06.296,64,-1,1586.81318681319,0.116994116994117,33.9264232775895
1743439206315,12:40:06.315,64,-1,1628.57142857143,0.124098124098124,33.9264232775895
1743439206335,12:40:06.335,64,-1,1652.01465201465,0.125874125874126,33.9264232775895
1743439206354,12:40:06.354,64,-1,1659.34065934066,0.128982128982129,33.9264232775895
1743439206374,12:40:06.374,64,-1,1659.34065934066,0.118326118326118,33.9264232775895
1743439206393,12:40:06.393,64,-1,1652.74725274725,0.122322122322122,33.9264232775895
1743439206413,12:40:06.413,64,-1,1649.81684981685,0.131202131202131,33.9264232775895
1743439206432,12:40:06.432,64,-1,1628.57142857143,0.133422133422133,33.9264232775895
1743439206452,12:40:06.452,64,-1,1581.68498168498,0.134310134310134,33.9264232775895
1743439206471,12:40:06.471,64,-1,1553.84615384615,0.137418137418137,33.9264232775895
1743439206491,12:40:06.491,64,-1,1540.65934065934,0.141858141858142,33.9264232775895
1743439206510,12:40:06.510,64,-1,1539.92673992674,0.144522144522145,33.9264232775895
1743439206530,12:40:06.530,64,-1,1526.73992673993,0.148074148074148,33.9264232775895
1743439206549,12:40:06.549,64,-1,1495.9706959707,0.15029415029415,33.9264232775895
1743439206569,12:40:06.569,64,-1,1471.06227106227,0.151182151182151,33.9264232775895
1743439206588,12:40:06.588,64,-1,1474.72527472527,0.151626151626152,33.9264232775895
1743439206608,12:40:06.608,64,-1,1482.05128205128,0.152958152958153,33.9264232775895
1743439206627,12:40:06.627,64,-1,1490.10989010989,0.154734154734155,33.9264232775895
1743439206647,12:40:06.647,64,-1,1485.71428571429,0.157842157842158,33.9264232775895
1743439206666,12:40:06.666,64,-1,1475.45787545788,0.165834165834166,33.9264232775895
1743439206686,12:40:06.686,64,-1,1462.27106227106,0.172494172494172,33.9264232775895
1743439206705,12:40:06.705,75,-1,1438.82783882784,0.177822177822178,33.9264232775895
1743439206725,12:40:06.725,75,-1,1412.45421245421,0.185370185370185,33.9264232775895
1743439206744,12:40:06.744,75,-1,1384.61538461538,0.198246198246198,33.9264232775895
1743439206764,12:40:06.764,75,-1,1369.96336996337,0.208014208014208,33.9164177522762
1743439206783,12:40:06.783,75,-1,1360.43956043956,0.212454212454212,33.9164177522762
1743439206803,12:40:06.803,75,-1,1356.77655677656,0.213786213786214,33.9164177522762
1743439206822,12:40:06.822,75,-1,1347.25274725275,0.216894216894217,33.9164177522762
1743439206842,12:40:06.842,75,-1,1345.05494505494,0.221778221778222,33.9164177522762
1743439206861,12:40:06.861,75,-1,1347.98534798535,0.228882228882229,33.9164177522762
1743439206881,12:40:06.881,75,-1,1338.46153846154,0.237318237318237,33.9164177522762
1743439206900,12:40:06.900,75,-1,1326.73992673993,0.233766233766234,33.9164177522762
1743439206920,12:40:06.920,75,-1,1318.68131868132,0.226218226218226,33.9164177522762
1743439206939,12:40:06.939,75,-1,1309.89010989011,0.227550227550227,33.9164177522762
1743439206959,12:40:06.959,75,-1,1306.22710622711,0.231990231990232,33.9164177522762
1743439206978,12:40:06.978,75,-1,1300.3663003663,0.231546231546231,33.9164177522762
1743439206998,12:40:06.998,75,-1,1314.28571428571,0.233322233322233,33.9164177522762
1743439207017,12:40:07.017,75,-1,1369.23076923077,0.233322233322233,33.9164177522762
1743439207037,12:40:07.037,75,-1,1451.28205128205,0.235542235542236,33.9164177522762
1743439207056,12:40:07.056,75,-1,1554.57875457875,0.238650238650239,33.9164177522762
1743439207076,12:40:07.076,75,-1,1646.15384615385,0.23998223998224,33.9164177522762
1743439207095,12:40:07.095,75,-1,1713.55311355311,0.248418248418248,33.9164177522762
1743439207115,12:40:07.115,75,-1,1772.16117216117,0.258186258186258,33.9164177522762
1743439207134,12:40:07.134,75,-1,1821.24542124542,0.261738261738262,33.9164177522762
1743439207154,12:40:07.154,75,-1,1839.56043956044,0.256410256410256,33.9164177522762
1743439207173,12:40:07.173,75,-1,1849.81684981685,0.255522255522255,33.9164177522762
1743439207193,12:40:07.193,75,-1,1845.42124542125,0.243090243090243,33.9164177522762
1743439207212,12:40:07.212,75,-1,1837.36263736264,0.247086247086247,33.9164177522762
1743439207232,12:40:07.232,75,-1,1822.71062271062,0.254190254190254,33.9164177522762
1743439207251,12:40:07.251,75,-1,1784.61538461538,0.255966255966256,33.9164177522762
1743439207271,12:40:07.271,75,-1,1750.18315018315,0.251526251526252,33.9164177522762
1743439207290,12:40:07.290,75,-1,1717.94871794872,0.249306249306249,33.9164177522762
1743439207310,12:40:07.310,75,-1,1697.4358974359,0.247086247086247,33.9164177522762
1743439207329,12:40:07.329,75,-1,1676.92307692308,0.251082251082251,33.9164177522762
1743439207349,12:40:07.349,75,-1,1654.21245421245,0.253746253746254,33.9164177522762
1743439207368,12:40:07.368,75,-1,1629.30402930403,0.248862248862249,33.9164177522762
1743439207388,12:40:07.388,75,-1,1610.25641025641,0.239094239094239,33.9164177522762
1743439207407,12:40:07.407,75,-1,1594.87179487179,0.24042624042624,33.9164177522762
1743439207427,12:40:07.427,75,-1,1580.95238095238,0.246198246198246,33.9164177522762
1743439207446,12:40:07.446,75,-1,1564.83516483516,0.254634254634255,33.9164177522762
1743439207466,12:40:07.466,75,-1,1550.91575091575,0.259518259518259,33.9164177522762
1743439207485,12:40:07.485,75,-1,1523.80952380952,0.260850260850261,33.9164177522762
1743439207505,12:40:07.505,75,-1,1502.5641025641,0.257298257298257,33.9164177522762
1743439207524,12:40:07.524,75,-1,1476.92307692308,0.257298257298257,33.9164177522762
1743439207544,12:40:07.544,75,-1,1446.88644688645,0.262626262626263,33.9164177522762
1743439207563,12:40:07.563,75,-1,1423.44322344322,0.273282273282273,33.9164177522762
1743439207583,12:40:07.583,75,-1,1406.59340659341,0.281718281718282,33.9164177522762
1743439207602,12:40:07.602,75,-1,1388.27838827839,0.288822288822289,33.9164177522762
1743439207622,12:40:07.622,65,-1,1366.30036630037,0.287934287934288,33.9164177522762
1743439207641,12:40:07.641,65,-1,1346.52014652015,0.289266289266289,33.9164177522762
1743439207661,12:40:07.661,65,-1,1331.13553113553,0.298146298146298,33.9164177522762
1743439207680,12:40:07.680,65,-1,1338.46153846154,0.305250305250305,33.9164177522762
1743439207700,12:40:07.700,65,-1,1358.97435897436,0.30969030969031,33.9164177522762
1743439207719,12:40:07.719,65,-1,1351.64835164835,0.30969030969031,33.9164177522762
1743439207739,12:40:07.739,65,-1,1336.99633699634,0.308802308802309,33.9164177522762
1743439207758,12:40:07.758,65,-1,1331.13553113553,0.311466311466311,33.9264232775895
1743439207778,12:40:07.778,65,-1,1317.21611721612,0.317682317682318,33.9264232775895
1743439207797,12:40:07.797,65,-1,1301.0989010989,0.325230325230325,33.9264232775895
1743439207817,12:40:07.817,65,-1,1287.91208791209,0.331446331446331,33.9264232775895
1743439207836,12:40:07.836,65,-1,1301.0989010989,0.331446331446331,33.9264232775895
1743439207856,12:40:07.856,65,-1,1359.70695970696,0.328782328782329,33.9264232775895
1743439207875,12:40:07.875,65,-1,1473.26007326007,0.328782328782329,33.9264232775895
1743439207895,12:40:07.895,65,-1,1605.12820512821,0.333222333222333,33.9264232775895
1743439207914,12:40:07.914,65,-1,1730.40293040293,0.338106338106338,33.9264232775895
1743439207934,12:40:07.934,65,-1,1825.64102564103,0.339438339438339,33.9264232775895
1743439207953,12:40:07.953,65,-1,1890.10989010989,0.335886335886336,33.9264232775895
1743439207973,12:40:07.973,65,-1,1925.27472527473,0.333666333666334,33.9264232775895
1743439207992,12:40:07.992,65,-1,1947.25274725275,0.335442335442335,33.9264232775895
1743439208012,12:40:08.012,65,-1,1963.36996336996,0.341214341214341,33.9264232775895
1743439208031,12:40:08.031,65,-1,1959.70695970696,0.345210345210345,33.9264232775895
1743439208051,12:40:08.051,65,-1,1947.98534798535,0.344322344322344,33.9264232775895
1743439208070,12:40:08.070,65,-1,1928.20512820513,0.34032634032634,33.9264232775895
1743439208090,12:40:08.090,65,-1,1904.7619047619,0.335886335886336,33.9264232775895
1743439208109,12:40:08.109,65,-1,1857.14285714286,0.337218337218337,33.9264232775895
1743439208129,12:40:08.129,65,-1,1787.54578754579,0.342990342990343,33.9264232775895
1743439208148,12:40:08.148,65,-1,1723.80952380952,0.347430347430347,33.9264232775895
1743439208168,12:40:08.168,65,-1,1677.65567765568,0.347430347430347,33.9264232775895
1743439208187,12:40:08.187,65,-1,1652.74725274725,0.342990342990343,33.9264232775895
1743439208207,12:40:08.207,65,-1,1632.23443223443,0.33988233988234,33.9264232775895
1743439208226,12:40:08.226,65,-1,1621.97802197802,0.342990342990343,33.9264232775895
1743439208246,12:40:08.246,65,-1,1610.25641025641,0.353646353646354,33.9264232775895
1743439208265,12:40:08.265,65,-1,1583.15018315018,0.377622377622378,33.9264232775895
1743439208285,12:40:08.285,65,-1,1556.77655677656,0.387390387390387,33.9264232775895
1743439208304,12:40:08.304,65,-1,1528.93772893773,0.376290376290376,33.9264232775895
1743439208324,12:40:08.324,65,-1,1490.84249084249,0.369186369186369,33.9264232775895
1743439208343,12:40:08.343,65,-1,1448.35164835165,0.368298368298368,33.9264232775895
1743439208363,12:40:08.363,65,-1,1406.59340659341,0.382062382062382,33.9264232775895
1743439208382,12:40:08.382,65,-1,1379.48717948718,0.395826395826396,33.9264232775895
1743439208402,12:40:08.402,65,-1,1356.04395604396,0.400710400710401,33.9264232775895
1743439208421,12:40:08.421,65,-1,1338.46153846154,0.397158397158397,33.9264232775895
1743439208441,12:40:08.441,65,-1,1331.86813186813,0.396270396270396,33.9264232775895
1743439208460,12:40:08.460,65,-1,1322.34432234432,0.3998223998224,33.9264232775895
1743439208480,12:40:08.480,65,-1,1315.75091575092,0.411366411366411,33.9264232775895
1743439208499,12:40:08.499,65,-1,1304.0293040293,0.418026418026418,33.9264232775895
1743439208519,12:40:08.519,65,-1,1308.42490842491,0.419358419358419,33.9264232775895
1743439208538,12:40:08.538,65,-1,1302.5641025641,0.418914418914419,33.9264232775895
1743439208558,12:40:08.558,65,-1,1275.45787545788,0.422910422910423,33.9264232775895
1743439208577,12:40:08.577,65,-1,1249.81684981685,0.432678432678433,33.9264232775895
1743439208597,12:40:08.597,65,-1,1235.89743589744,0.442002442002442,33.9264232775895
1743439208616,12:40:08.616,65,-1,1230.03663003663,0.452214452214452,33.9264232775895
1743439208636,12:40:08.636,65,-1,1223.44322344322,0.455766455766456,33.9264232775895
1743439208655,12:40:08.655,65,-1,1222.71062271062,0.462426462426462,33.9264232775895
1743439208675,12:40:08.675,65,-1,1230.03663003663,0.467754467754468,33.9264232775895
1743439208694,12:40:08.694,65,-1,1235.16483516484,0.483294483294483,33.9264232775895
1743439208714,12:40:08.714,65,-1,1247.61904761905,0.493506493506494,33.9264232775895
1743439208733,12:40:08.733,65,-1,1256.41025641026,0.4997224997225,33.9264232775895
1743439208753,12:40:08.753,65,-1,1263.00366300366,0.505938505938506,33.9114149808884
1743439208772,12:40:08.772,65,-1,1322.34432234432,0.504162504162504,33.9114149808884
1743439208792,12:40:08.792,65,-1,1428.57142857143,0.506382506382506,33.9114149808884
1743439208811,12:40:08.811,65,-1,1560.43956043956,0.511710511710512,33.9114149808884
1743439208831,12:40:08.831,65,-1,1673.26007326007,0.518370518370518,33.9114149808884
1743439208850,12:40:08.850,65,-1,1762.63736263736,0.523254523254523,33.9114149808884
1743439208870,12:40:08.870,65,-1,1823.44322344322,0.524142524142524,33.9114149808884
1743439208889,12:40:08.889,65,-1,1873.26007326007,0.528138528138528,33.9114149808884
1743439208909,12:40:08.909,65,-1,1904.7619047619,0.531690531690532,33.9114149808884
1743439208928,12:40:08.928,65,-1,1917.21611721612,0.537906537906538,33.9114149808884
1743439208948,12:40:08.948,65,-1,1916.48351648352,0.543678543678544,33.9114149808884
1743439208967,12:40:08.967,65,-1,1906.22710622711,0.544122544122544,33.9114149808884
1743439208987,12:40:08.987,65,-1,1882.78388278388,0.540570540570541,33.9114149808884
1743439209006,12:40:09.006,65,-1,1849.08424908425,0.537018537018537,33.9114149808884
1743439209026,12:40:09.026,65,-1,1789.74358974359,0.538794538794539,33.9114149808884
1743439209045,12:40:09.045,65,-1,1719.41391941392,0.544566544566545,33.9114149808884
1743439209065,12:40:09.065,65,-1,1660.80586080586,0.54989454989455,33.9114149808884
1743439209084,12:40:09.084,65,-1,1619.04761904762,0.55033855033855,33.9114149808884
1743439209104,12:40:09.104,65,-1,1594.87179487179,0.546786546786547,33.9114149808884
1743439209123,12:40:09.123,65,-1,1568.49816849817,0.544122544122544,33.9114149808884
1743439209143,12:40:09.143,65,-1,1538.46153846154,0.545898545898546,33.9114149808884
1743439209162,12:40:09.162,65,-1,1519.41391941392,0.551226551226551,33.9114149808884
1743439209182,12:40:09.182,65,-1,1508.42490842491,0.554334554334554,33.9114149808884
1743439209201,12:40:09.201,65,-1,1490.84249084249,0.553890553890554,33.9114149808884
1743439209221,12:40:09.221,65,-1,1467.39926739927,0.54945054945055,33.9114149808884
1743439209240,12:40:09.240,65,-1,1441.02564102564,0.546786546786547,33.9114149808884
1743439209260,12:40:09.260,65,-1,1411.72161172161,0.549006549006549,33.9114149808884
1743439209279,12:40:09.279,65,-1,1383.88278388278,0.555222555222555,33.9114149808884
1743439209299,12:40:09.299,65,-1,1353.11355311355,0.557886557886558,33.9114149808884
1743439209318,12:40:09.318,65,-1,1312.82051282051,0.557442557442558,33.9114149808884
1743439209338,12:40:09.338,65,-1,1279.12087912088,0.552558552558552,33.9114149808884
1743439209357,12:40:09.357,65,-1,1264.46886446886,0.54989454989455,33.9114149808884
1743439209377,12:40:09.377,65,-1,1257.14285714286,0.552114552114552,33.9114149808884
1743439209396,12:40:09.396,65,-1,1241.02564102564,0.557886557886558,33.9114149808884
1743439209416,12:40:09.416,65,-1,1240.29304029304,0.56010656010656,33.9114149808884
1743439209435,12:40:09.435,65,-1,1244.68864468864,0.558330558330558,33.9114149808884
1743439209455,12:40:09.455,65,-1,1244.68864468864,0.552114552114552,33.9114149808884
1743439209474,12:40:09.474,62,-1,1237.36263736264,0.551226551226551,33.9114149808884
1743439209494,12:40:09.494,62,-1,1235.16483516484,0.553446553446553,33.9114149808884
1743439209513,12:40:09.513,62,-1,1233.69963369963,0.559218559218559,33.9114149808884
1743439209533,12:40:09.533,62,-1,1235.89743589744,0.561438561438561,33.9114149808884
1743439209552,12:40:09.552,62,-1,1237.36263736264,0.560550560550561,33.9114149808884
1743439209572,12:40:09.572,62,-1,1236.63003663004,0.556110556110556,33.9114149808884
1743439209591,12:40:09.591,62,-1,1222.71062271062,0.554778554778555,33.9114149808884
1743439209611,12:40:09.611,62,-1,1216.84981684982,0.557442557442558,33.9114149808884
1743439209630,12:40:09.630,62,-1,1210.25641025641,0.563214563214563,33.9114149808884
1743439209650,12:40:09.650,62,-1,1213.18681318681,0.564990564990565,33.9114149808884
1743439209669,12:40:09.669,62,-1,1248.35164835165,0.562770562770563,33.9114149808884
1743439209689,12:40:09.689,62,-1,1330.40293040293,0.557886557886558,33.9114149808884
1743439209708,12:40:09.708,62,-1,1427.10622710623,0.556998556998557,33.9114149808884
1743439209728,12:40:09.728,62,-1,1531.86813186813,0.56010656010656,33.9114149808884
1743439209747,12:40:09.747,62,-1,1641.02564102564,0.566766566766567,33.9164177522762
1743439209767,12:40:09.767,62,-1,1736.99633699634,0.567654567654568,33.9164177522762
1743439209786,12:40:09.786,62,-1,1778.02197802198,0.564990564990565,33.9164177522762
1743439209806,12:40:09.806,62,-1,1764.10256410256,0.55966255966256,33.9164177522762
1743439209825,12:40:09.825,62,-1,1742.12454212454,0.560550560550561,33.9164177522762
1743439209845,12:40:09.845,62,-1,1731.86813186813,0.564546564546564,33.9164177522762
1743439209864,12:40:09.864,62,-1,1715.75091575092,0.57031857031857,33.9164177522762
1743439209884,12:40:09.884,62,-1,1699.6336996337,0.571650571650572,33.9164177522762
1743439209903,12:40:09.903,62,-1,1665.20146520146,0.568542568542569,33.9164177522762
1743439209923,12:40:09.923,62,-1,1616.84981684982,0.564546564546564,33.9164177522762
1743439209942,12:40:09.942,62,-1,1557.50915750916,0.569430569430569,33.9164177522762
1743439209962,12:40:09.962,62,-1,1512.08791208791,0.575202575202575,33.9164177522762
1743439209981,12:40:09.981,62,-1,1487.91208791209,0.58008658008658,33.9164177522762
1743439210001,12:40:10.001,62,-1,1470.32967032967,0.579198579198579,33.9164177522762
1743439210020,12:40:10.020,62,-1,1448.35164835165,0.576534576534577,33.9164177522762
1743439210040,12:40:10.040,62,-1,1438.09523809524,0.571650571650572,33.9164177522762
1743439210059,12:40:10.059,62,-1,1443.22344322344,0.572094572094572,33.9164177522762
1743439210079,12:40:10.079,62,-1,1438.09523809524,0.58053058053058,33.9164177522762
1743439210098,12:40:10.098,62,-1,1434.43223443223,0.583194583194583,33.9164177522762
1743439210118,12:40:10.118,62,-1,1416.84981684982,0.582750582750583,33.9164177522762
1743439210137,12:40:10.137,62,-1,1376.55677655678,0.578754578754579,33.9164177522762
1743439210157,12:40:10.157,62,-1,1347.25274725275,0.574314574314574,33.9164177522762
1743439210176,12:40:10.176,62,-1,1337.72893772894,0.573870573870574,33.9164177522762
1743439210196,12:40:10.196,62,-1,1315.75091575092,0.576534576534577,33.9164177522762
1743439210215,12:40:10.215,62,-1,1306.22710622711,0.582750582750583,33.9164177522762
1743439210235,12:40:10.235,62,-1,1300.3663003663,0.582306582306582,33.9164177522762
1743439210254,12:40:10.254,62,-1,1282.78388278388,0.58053058053058,33.9164177522762
1743439210274,12:40:10.274,62,-1,1262.27106227106,0.578310578310578,33.9164177522762
1743439210293,12:40:10.293,68,-1,1240.29304029304,0.58053058053058,33.9164177522762
1743439210313,12:40:10.313,68,-1,1210.25641025641,0.584970584970585,33.9164177522762
1743439210332,12:40:10.332,68,-1,1184.61538461538,0.586302586302586,33.9164177522762
1743439210352,12:40:10.352,68,-1,1173.62637362637,0.583638583638584,33.9164177522762
1743439210371,12:40:10.371,68,-1,1186.08058608059,0.575202575202575,33.9164177522762
1743439210391,12:40:10.391,68,-1,1213.18681318681,0.57031857031857,33.9164177522762
1743439210410,12:40:10.410,68,-1,1224.17582417582,0.56987456987457,33.9164177522762
1743439210430,12:40:10.430,68,-1,1227.83882783883,0.575202575202575,33.9164177522762
1743439210449,12:40:10.449,68,-1,1253.47985347985,0.576090576090576,33.9164177522762
1743439210469,12:40:10.469,68,-1,1323.80952380952,0.572538572538572,33.9164177522762
1743439210488,12:40:10.488,68,-1,1420.51282051282,0.563658563658564,33.9164177522762
1743439210508,12:40:10.508,68,-1,1517.21611721612,0.556998556998557,33.9164177522762
1743439210527,12:40:10.527,68,-1,1605.86080586081,0.553446553446553,33.9164177522762
1743439210547,12:40:10.547,68,-1,1684.98168498168,0.557886557886558,33.9164177522762
1743439210566,12:40:10.566,68,-1,1739.92673992674,0.558774558774559,33.9164177522762
1743439210586,12:40:10.586,68,-1,1747.98534798535,0.553890553890554,33.9164177522762
1743439210605,12:40:10.605,68,-1,1740.65934065934,0.545010545010545,33.9164177522762
1743439210625,12:40:10.625,68,-1,1735.53113553114,0.541902541902542,33.9164177522762
1743439210644,12:40:10.644,68,-1,1717.94871794872,0.546786546786547,33.9164177522762
1743439210664,12:40:10.664,68,-1,1686.44688644689,0.549006549006549,33.9164177522762
1743439210683,12:40:10.683,68,-1,1654.94505494505,0.548118548118548,33.9164177522762
1743439210703,12:40:10.703,68,-1,1626.37362637363,0.547674547674548,33.9164177522762
1743439210722,12:40:10.722,68,-1,1590.47619047619,0.537906537906538,33.9164177522762
1743439210742,12:40:10.742,68,-1,1541.39194139194,0.534354534354534,33.9264232775895
1743439210761,12:40:10.761,68,-1,1504.7619047619,0.536574536574537,33.9264232775895
1743439210781,12:40:10.781,68,-1,1475.45787545788,0.54012654012654,33.9264232775895
1743439210800,12:40:10.800,68,-1,1470.32967032967,0.538350538350538,33.9264232775895
1743439210820,12:40:10.820,68,-1,1471.06227106227,0.533466533466533,33.9264232775895
1743439210839,12:40:10.839,68,-1,1462.27106227106,0.524586524586525,33.9264232775895
1743439210859,12:40:10.859,68,-1,1458.60805860806,0.524142524142524,33.9264232775895
1743439210878,12:40:10.878,68,-1,1446.88644688645,0.529470529470529,33.9264232775895
1743439210898,12:40:10.898,68,-1,1416.84981684982,0.54012654012654,33.9264232775895
1743439210917,12:40:10.917,68,-1,1391.20879120879,0.543234543234543,33.9264232775895
1743439210937,12:40:10.937,68,-1,1369.23076923077,0.541014541014541,33.9264232775895
1743439210956,12:40:10.956,68,-1,1343.58974358974,0.537462537462537,33.9264232775895
1743439210976,12:40:10.976,68,-1,1315.75091575092,0.538350538350538,33.9264232775895
1743439210995,12:40:10.995,68,-1,1298.1684981685,0.542346542346542,33.9264232775895
1743439211015,12:40:11.015,68,-1,1279.85347985348,0.547230547230547,33.9264232775895
1743439211034,12:40:11.034,68,-1,1268.13186813187,0.549006549006549,33.9264232775895
1743439211054,12:40:11.054,68,-1,1257.87545787546,0.546786546786547,33.9264232775895
1743439211073,12:40:11.073,68,-1,1254.94505494505,0.542346542346542,33.9264232775895
1743439211093,12:40:11.093,73,-1,1256.41025641026,0.541902541902542,33.9264232775895
1743439211112,12:40:11.112,73,-1,1252.01465201465,0.548118548118548,33.9264232775895
1743439211132,12:40:11.132,73,-1,1231.50183150183,0.555222555222555,33.9264232775895
1743439211151,12:40:11.151,73,-1,1210.25641025641,0.555222555222555,33.9264232775895
1743439211171,12:40:11.171,73,-1,1196.336996337,0.54945054945055,33.9264232775895
1743439211190,12:40:11.190,73,-1,1200.7326007326,0.545454545454545,33.9264232775895
1743439211210,12:40:11.210,73,-1,1213.18681318681,0.544122544122544,33.9264232775895
1743439211229,12:40:11.229,73,-1,1221.97802197802,0.548118548118548,33.9264232775895
1743439211249,12:40:11.249,73,-1,1252.74725274725,0.548562548562548,33.9264232775895
1743439211268,12:40:11.268,73,-1,1302.5641025641,0.546342546342546,33.9264232775895
1743439211288,12:40:11.288,73,-1,1368.49816849817,0.539238539238539,33.9264232775895
1743439211307,12:40:11.307,73,-1,1457.14285714286,0.529470529470529,33.9264232775895
1743439211327,12:40:11.327,73,-1,1546.52014652015,0.534798534798535,33.9264232775895
1743439211346,12:40:11.346,73,-1,1610.98901098901,0.542346542346542,33.9264232775895
1743439211366,12:40:11.366,73,-1,1649.81684981685,0.548118548118548,33.9264232775895
1743439211385,12:40:11.385,73,-1,1668.86446886447,0.545010545010545,33.9264232775895
1743439211405,12:40:11.405,73,-1,1690.84249084249,0.537906537906538,33.9264232775895
1743439211424,12:40:11.424,73,-1,1717.21611721612,0.534798534798535,33.9264232775895
1743439211444,12:40:11.444,73,-1,1717.94871794872,0.53968253968254,33.9264232775895
1743439211463,12:40:11.463,73,-1,1714.28571428571,0.548562548562548,33.9264232775895
1743439211483,12:40:11.483,73,-1,1696.7032967033,0.552114552114552,33.9264232775895
1743439211502,12:40:11.502,73,-1,1663.73626373626,0.552114552114552,33.9264232775895
1743439211522,12:40:11.522,73,-1,1613.18681318681,0.547230547230547,33.9264232775895
1743439211541,12:40:11.541,73,-1,1557.50915750916,0.545898545898546,33.9264232775895
1743439211561,12:40:11.561,73,-1,1506.95970695971,0.548562548562548,33.9264232775895
1743439211580,12:40:11.580,73,-1,1473.99267399267,0.555222555222555,33.9264232775895
1743439211600,12:40:11.600,73,-1,1447.61904761905,0.559218559218559,33.9264232775895
1743439211619,12:40:11.619,73,-1,1432.23443223443,0.558330558330558,33.9264232775895
1743439211639,12:40:11.639,73,-1,1426.37362637363,0.552114552114552,33.9264232775895
1743439211658,12:40:11.658,73,-1,1422.71062271062,0.548118548118548,33.9264232775895
1743439211678,12:40:11.678,73,-1,1416.11721611722,0.548562548562548,33.9264232775895
1743439211697,12:40:11.697,73,-1,1389.74358974359,0.556998556998557,33.9264232775895
1743439211717,12:40:11.717,73,-1,1348.71794871795,0.55966255966256,33.9264232775895
1743439211736,12:40:11.736,73,-1,1314.28571428571,0.556554556554557,33.9164177522762
1743439211756,12:40:11.756,73,-1,1289.37728937729,0.54945054945055,33.9164177522762
1743439211775,12:40:11.775,73,-1,1266.66666666667,0.547230547230547,33.9164177522762
1743439211795,12:40:11.795,73,-1,1243.22344322344,0.549006549006549,33.9164177522762
1743439211814,12:40:11.814,73,-1,1232.96703296703,0.554778554778555,33.9164177522762
1743439211834,12:40:11.834,73,-1,1227.83882783883,0.553002553002553,33.9164177522762
1743439211853,12:40:11.853,73,-1,1212.45421245421,0.547230547230547,33.9164177522762
1743439211873,12:40:11.873,73,-1,1202.1978021978,0.537906537906538,33.9164177522762
1743439211892,12:40:11.892,73,-1,1198.5347985348,0.533466533466533,33.9164177522762
1743439211912,12:40:11.912,73,-1,1196.336996337,0.536130536130536,33.9164177522762
1743439211931,12:40:11.931,75,-1,1198.5347985348,0.539238539238539,33.9164177522762
1743439211951,12:40:11.951,75,-1,1197.0695970696,0.534798534798535,33.9164177522762
1743439211970,12:40:11.970,75,-1,1200,0.530802530802531,33.9164177522762
1743439211990,12:40:11.990,75,-1,1209.52380952381,0.526806526806527,33.9164177522762
1743439212009,12:40:12.009,75,-1,1216.84981684982,0.525030525030525,33.9164177522762
1743439212029,12:40:12.029,75,-1,1208.05860805861,0.528582528582529,33.9164177522762
1743439212048,12:40:12.048,75,-1,1202.9304029304,0.533022533022533,33.9164177522762
1743439212068,12:40:12.068,75,-1,1213.91941391941,0.531690531690532,33.9164177522762
1743439212087,12:40:12.087,75,-1,1246.15384615385,0.526362526362526,33.9164177522762
1743439212107,12:40:12.107,75,-1,1310.62271062271,0.52014652014652,33.9164177522762
1743439212126,12:40:12.126,75,-1,1400.7326007326,0.517482517482518,33.9164177522762
1743439212146,12:40:12.146,75,-1,1508.42490842491,0.517482517482518,33.9164177522762
1743439212165,12:40:12.165,75,-1,1600,0.51970251970252,33.9164177522762
1743439212185,12:40:12.185,75,-1,1658.60805860806,0.521922521922522,33.9164177522762
1743439212204,12:40:12.204,75,-1,1684.24908424908,0.51970251970252,33.9164177522762
1743439212224,12:40:12.224,75,-1,1699.6336996337,0.514374514374514,33.9164177522762
1743439212243,12:40:12.243,75,-1,1698.9010989011,0.515262515262515,33.9164177522762
1743439212263,12:40:12.263,75,-1,1685.71428571429,0.521478521478521,33.9164177522762
1743439212282,12:40:12.282,75,-1,1669.59706959707,0.526806526806527,33.9164177522762
1743439212302,12:40:12.302,75,-1,1647.61904761905,0.527250527250527,33.9164177522762
1743439212321,12:40:12.321,75,-1,1620.51282051282,0.523698523698524,33.9164177522762
1743439212341,12:40:12.341,75,-1,1594.13919413919,0.518370518370518,33.9164177522762
1743439212360,12:40:12.360,75,-1,1562.63736263736,0.516594516594516,33.9164177522762
1743439212380,12:40:12.380,75,-1,1517.21611721612,0.52014652014652,33.9164177522762
1743439212399,12:40:12.399,75,-1,1472.52747252747,0.522810522810523,33.9164177522762
1743439212419,12:40:12.419,75,-1,1431.50183150183,0.522366522366522,33.9164177522762
1743439212438,12:40:12.438,75,-1,1405.86080586081,0.518370518370518,33.9164177522762
1743439212458,12:40:12.458,75,-1,1388.27838827839,0.514818514818515,33.9164177522762
1743439212477,12:40:12.477,75,-1,1374.35897435897,0.517038517038517,33.9164177522762
1743439212497,12:40:12.497,75,-1,1371.42857142857,0.524586524586525,33.9164177522762
1743439212516,12:40:12.516,75,-1,1368.49816849817,0.529026529026529,33.9164177522762
1743439212536,12:40:12.536,75,-1,1361.17216117216,0.528138528138528,33.9164177522762
1743439212555,12:40:12.555,75,-1,1353.11355311355,0.523698523698524,33.9164177522762
1743439212575,12:40:12.575,75,-1,1328.20512820513,0.522366522366522,33.9164177522762
1743439212594,12:40:12.594,75,-1,1309.15750915751,0.525918525918526,33.9164177522762
1743439212614,12:40:12.614,75,-1,1288.64468864469,0.532578532578532,33.9164177522762
1743439212633,12:40:12.633,75,-1,1259.34065934066,0.536130536130536,33.9164177522762
1743439212653,12:40:12.653,75,-1,1221.24542124542,0.535686535686536,33.9164177522762
1743439212672,12:40:12.672,75,-1,1184.61538461538,0.531246531246531,33.9164177522762
1743439212692,12:40:12.692,75,-1,1162.63736263736,0.53035853035853,33.9164177522762
1743439212711,12:40:12.711,75,-1,1164.83516483516,0.533022533022533,33.9164177522762
1743439212731,12:40:12.731,75,-1,1187.54578754579,0.54012654012654,33.9014094206505
1743439212750,12:40:12.750,75,-1,1210.25641025641,0.542790542790543,33.9014094206505
1743439212770,12:40:12.770,75,-1,1212.45421245421,0.541458541458541,33.9014094206505
1743439212789,12:40:12.789,75,-1,1199.2673992674,0.536574536574537,33.9014094206505
1743439212809,12:40:12.809,75,-1,1181.68498168498,0.536130536130536,33.9014094206505
1743439212828,12:40:12.828,75,-1,1175.09157509158,0.538794538794539,33.9014094206505
1743439212848,12:40:12.848,72,-1,1190.47619047619,0.545454545454545,33.9014094206505
1743439212867,12:40:12.867,72,-1,1202.1978021978,0.547674547674548,33.9014094206505
1743439212887,12:40:12.887,72,-1,1200,0.545898545898546,33.9014094206505
1743439212906,12:40:12.906,72,-1,1189.01098901099,0.540570540570541,33.9014094206505
1743439212926,12:40:12.926,72,-1,1188.27838827839,0.53968253968254,33.9014094206505
1743439212945,12:40:12.945,72,-1,1226.37362637363,0.542346542346542,33.9014094206505
1743439212965,12:40:12.965,72,-1,1297.4358974359,0.548562548562548,33.9014094206505
1743439212984,12:40:12.984,72,-1,1386.81318681319,0.54989454989455,33.9014094206505
1743439213004,12:40:13.004,72,-1,1485.71428571429,0.547230547230547,33.9014094206505
1743439213023,12:40:13.023,72,-1,1567.03296703297,0.541902541902542,33.9014094206505
1743439213043,12:40:13.043,72,-1,1610.25641025641,0.541902541902542,33.9014094206505
1743439213062,12:40:13.062,72,-1,1632.96703296703,0.545898545898546,33.9014094206505
1743439213082,12:40:13.082,72,-1,1644.68864468864,0.552114552114552,33.9014094206505
1743439213101,12:40:13.101,72,-1,1646.15384615385,0.552558552558552,33.9014094206505
1743439213121,12:40:13.121,72,-1,1649.08424908425,0.549006549006549,33.9014094206505
1743439213140,12:40:13.140,72,-1,1640.29304029304,0.544566544566545,33.9014094206505
1743439213160,12:40:13.160,72,-1,1616.84981684982,0.545010545010545,33.9014094206505
1743439213179,12:40:13.179,72,-1,1591.94139194139,0.54945054945055,33.9014094206505
1743439213199,12:40:13.199,72,-1,1556.77655677656,0.554334554334554,33.9014094206505
1743439213218,12:40:13.218,72,-1,1513.55311355311,0.554778554778555,33.9014094206505
1743439213238,12:40:13.238,72,-1,1463.00366300366,0.551226551226551,33.9014094206505
1743439213257,12:40:13.257,72,-1,1428.57142857143,0.546786546786547,33.9014094206505
1743439213277,12:40:13.277,72,-1,1409.52380952381,0.547674547674548,33.9014094206505
1743439213296,12:40:13.296,72,-1,1400,0.553002553002553,33.9014094206505
1743439213316,12:40:13.316,72,-1,1378.02197802198,0.557886557886558,33.9014094206505
1743439213335,12:40:13.335,72,-1,1349.45054945055,0.557442557442558,33.9014094206505
1743439213355,12:40:13.355,72,-1,1335.53113553114,0.553002553002553,33.9014094206505
1743439213374,12:40:13.374,72,-1,1332.60073260073,0.54945054945055,33.9014094206505
1743439213394,12:40:13.394,72,-1,1331.86813186813,0.555222555222555,33.9014094206505
1743439213413,12:40:13.413,72,-1,1309.89010989011,0.565878565878566,33.9014094206505
1743439213433,12:40:13.433,72,-1,1279.85347985348,0.571206571206571,33.9014094206505
1743439213452,12:40:13.452,72,-1,1248.35164835165,0.571206571206571,33.9014094206505
1743439213472,12:40:13.472,72,-1,1232.23443223443,0.568542568542569,33.9014094206505
1743439213491,12:40:13.491,72,-1,1222.71062271062,0.566766566766567,33.9014094206505
1743439213511,12:40:13.511,72,-1,1225.64102564103,0.568986568986569,33.9014094206505
1743439213530,12:40:13.530,72,-1,1228.57142857143,0.575202575202575,33.9014094206505
1743439213550,12:40:13.550,72,-1,1216.11721611722,0.579198579198579,33.9014094206505
1743439213569,12:40:13.569,72,-1,1215.38461538462,0.578754578754579,33.9014094206505
1743439213589,12:40:13.589,72,-1,1212.45421245421,0.574314574314574,33.9014094206505
1743439213608,12:40:13.608,72,-1,1201.4652014652,0.571650571650572,33.9014094206505
1743439213628,12:40:13.628,72,-1,1200,0.573426573426573,33.9014094206505
1743439213647,12:40:13.647,72,-1,1205.12820512821,0.57964257964258,33.9014094206505
1743439213667,12:40:13.667,72,-1,1192.67399267399,0.581862581862582,33.9014094206505
1743439213686,12:40:13.686,72,-1,1188.27838827839,0.58053058053058,33.9014094206505
1743439213706,12:40:13.706,72,-1,1185.34798534799,0.574758574758575,33.9014094206505
1743439213725,12:40:13.725,72,-1,1186.08058608059,0.572982572982573,33.9064122036798
1743439213745,12:40:13.745,65,-1,1196.336996337,0.575202575202575,33.9064122036798
1743439213764,12:40:13.764,65,-1,1214.65201465201,0.581862581862582,33.9064122036798
1743439213784,12:40:13.784,65,-1,1241.02564102564,0.583638583638584,33.9064122036798
1743439213803,12:40:13.803,65,-1,1288.64468864469,0.581862581862582,33.9064122036798
1743439213823,12:40:13.823,65,-1,1360.43956043956,0.576090576090576,33.9064122036798
1743439213842,12:40:13.842,65,-1,1449.81684981685,0.575202575202575,33.9064122036798
1743439213862,12:40:13.862,65,-1,1520.87912087912,0.577866577866578,33.9064122036798
1743439213881,12:40:13.881,65,-1,1560.43956043956,0.584082584082584,33.9064122036798
1743439213901,12:40:13.901,65,-1,1584.61538461538,0.586302586302586,33.9064122036798
1743439213920,12:40:13.920,65,-1,1601.4652014652,0.583638583638584,33.9064122036798
1743439213940,12:40:13.940,65,-1,1608.05860805861,0.577866577866578,33.9064122036798
1743439213959,12:40:13.959,65,-1,1590.47619047619,0.576978576978577,33.9064122036798
1743439213979,12:40:13.979,65,-1,1566.30036630037,0.58053058053058,33.9064122036798
1743439213998,12:40:13.998,65,-1,1534.79853479853,0.586302586302586,33.9064122036798
1743439214018,12:40:14.018,65,-1,1515.01831501831,0.588078588078588,33.9064122036798
1743439214037,12:40:14.037,65,-1,1492.30769230769,0.585858585858586,33.9064122036798
1743439214057,12:40:14.057,65,-1,1463.00366300366,0.58008658008658,33.9064122036798
1743439214076,12:40:14.076,65,-1,1438.09523809524,0.58008658008658,33.9064122036798
1743439214096,12:40:14.096,65,-1,1416.11721611722,0.583638583638584,33.9064122036798
1743439214115,12:40:14.115,65,-1,1389.01098901099,0.588966588966589,33.9064122036798
1743439214135,12:40:14.135,65,-1,1369.96336996337,0.589410589410589,33.9064122036798
1743439214154,12:40:14.154,65,-1,1365.56776556777,0.586746586746587,33.9064122036798
1743439214174,12:40:14.174,65,-1,1368.49816849817,0.582306582306582,33.9064122036798
1743439214193,12:40:14.193,65,-1,1372.16117216117,0.582306582306582,33.9064122036798
1743439214213,12:40:14.213,65,-1,1364.10256410256,0.586302586302586,33.9064122036798
1743439214232,12:40:14.232,65,-1,1342.85714285714,0.591186591186591,33.9064122036798
1743439214252,12:40:14.252,65,-1,1328.93772893773,0.591186591186591,33.9064122036798
1743439214271,12:40:14.271,65,-1,1308.42490842491,0.588522588522589,33.9064122036798
1743439214291,12:40:14.291,65,-1,1281.31868131868,0.584082584082584,33.9064122036798
1743439214310,12:40:14.310,65,-1,1260.80586080586,0.584082584082584,33.9064122036798
1743439214330,12:40:14.330,65,-1,1249.81684981685,0.588966588966589,33.9064122036798
1743439214349,12:40:14.349,65,-1,1245.42124542125,0.593850593850594,33.9064122036798
1743439214369,12:40:14.369,65,-1,1237.36263736264,0.593850593850594,33.9064122036798
1743439214388,12:40:14.388,65,-1,1230.03663003663,0.589410589410589,33.9064122036798
1743439214408,12:40:14.408,65,-1,1207.32600732601,0.584082584082584,33.9064122036798
1743439214427,12:40:14.427,65,-1,1191.20879120879,0.584526584526584,33.9064122036798
1743439214447,12:40:14.447,65,-1,1193.40659340659,0.589410589410589,33.9064122036798
1743439214466,12:40:14.466,65,-1,1188.27838827839,0.593850593850594,33.9064122036798
1743439214486,12:40:14.486,65,-1,1191.94139194139,0.593406593406593,33.9064122036798
1743439214505,12:40:14.505,65,-1,1192.67399267399,0.588966588966589,33.9064122036798
1743439214525,12:40:14.525,67,-1,1194.13919413919,0.585858585858586,33.9064122036798
1743439214544,12:40:14.544,67,-1,1200,0.587190587190587,33.9064122036798
1743439214564,12:40:14.564,67,-1,1232.23443223443,0.592518592518593,33.9064122036798
1743439214583,12:40:14.583,67,-1,1293.04029304029,0.596070596070596,33.9064122036798
1743439214603,12:40:14.603,67,-1,1367.76556776557,0.595182595182595,33.9064122036798
1743439214622,12:40:14.622,67,-1,1447.61904761905,0.58985458985459,33.9064122036798
1743439214642,12:40:14.642,67,-1,1523.80952380952,0.586746586746587,33.9064122036798
1743439214661,12:40:14.661,67,-1,1566.30036630037,0.588966588966589,33.9064122036798
1743439214681,12:40:14.681,67,-1,1577.28937728938,0.595626595626596,33.9064122036798
1743439214700,12:40:14.700,67,-1,1584.61538461538,0.598290598290598,33.9064122036798
1743439214720,12:40:14.720,67,-1,1579.48717948718,0.596070596070596,33.9064122036798
1743439214739,12:40:14.739,67,-1,1558.97435897436,0.59029859029859,33.9064122036798
1743439214759,12:40:14.759,67,-1,1537.72893772894,0.587634587634588,33.9064122036798
1743439214778,12:40:14.778,67,-1,1526.73992673993,0.58985458985459,33.9064122036798
1743439214798,12:40:14.798,67,-1,1516.48351648352,0.596070596070596,33.9064122036798
1743439214817,12:40:14.817,67,-1,1492.30769230769,0.598290598290598,33.9064122036798
1743439214837,12:40:14.837,67,-1,1457.87545787546,0.596514596514596,33.9064122036798
1743439214856,12:40:14.856,67,-1,1430.76923076923,0.59029859029859,33.9064122036798
1743439214876,12:40:14.876,67,-1,1411.72161172161,0.588966588966589,33.9064122036798
1743439214895,12:40:14.895,67,-1,1395.6043956044,0.591630591630592,33.9064122036798
1743439214915,12:40:14.915,67,-1,1379.48717948718,0.597402597402597,33.9064122036798
1743439214934,12:40:14.934,67,-1,1366.30036630037,0.599178599178599,33.9064122036798
1743439214954,12:40:14.954,67,-1,1359.70695970696,0.596958596958597,33.9064122036798
1743439214973,12:40:14.973,67,-1,1338.46153846154,0.591186591186591,33.9064122036798
1743439214993,12:40:14.993,67,-1,1326.73992673993,0.58985458985459,33.9064122036798
1743439215012,12:40:15.012,67,-1,1324.54212454212,0.592518592518593,33.9064122036798
1743439215032,12:40:15.032,67,-1,1317.21611721612,0.597846597846598,33.9064122036798
1743439215051,12:40:15.051,67,-1,1297.4358974359,0.5996225996226,33.9064122036798
1743439215071,12:40:15.071,67,-1,1282.05128205128,0.596958596958597,33.9064122036798
1743439215090,12:40:15.090,67,-1,1254.94505494505,0.591630591630592,33.9064122036798
1743439215110,12:40:15.110,67,-1,1236.63003663004,0.590742590742591,33.9064122036798
1743439215129,12:40:15.129,67,-1,1228.57142857143,0.593406593406593,33.9064122036798
1743439215149,12:40:15.149,67,-1,1220.51282051282,0.598734598734599,33.9064122036798
1743439215168,12:40:15.168,67,-1,1209.52380952381,0.599178599178599,33.9064122036798
1743439215188,12:40:15.188,67,-1,1201.4652014652,0.596070596070596,33.9064122036798
1743439215207,12:40:15.207,67,-1,1205.86080586081,0.590742590742591,33.9064122036798
1743439215227,12:40:15.227,67,-1,1215.38461538462,0.58985458985459,33.9064122036798
1743439215246,12:40:15.246,67,-1,1213.18681318681,0.593406593406593,33.9064122036798
1743439215266,12:40:15.266,67,-1,1208.79120879121,0.598734598734599,33.9064122036798
1743439215285,12:40:15.285,67,-1,1202.1978021978,0.598734598734599,33.9064122036798
1743439215305,12:40:15.305,67,-1,1194.13919413919,0.594738594738595,33.9064122036798
1743439215324,12:40:15.324,67,-1,1200,0.59029859029859,33.9064122036798
1743439215344,12:40:15.344,77,-1,1232.23443223443,0.58985458985459,33.9064122036798
1743439215363,12:40:15.363,77,-1,1290.84249084249,0.594738594738595,33.9064122036798
1743439215383,12:40:15.383,77,-1,1364.83516483516,0.599178599178599,33.9064122036798
1743439215402,12:40:15.402,77,-1,1441.75824175824,0.599178599178599,33.9064122036798
1743439215422,12:40:15.422,77,-1,1512.82051282051,0.594738594738595,33.9064122036798
1743439215441,12:40:15.441,77,-1,1566.30036630037,0.59029859029859,33.9064122036798
1743439215461,12:40:15.461,77,-1,1592.67399267399,0.590742590742591,33.9064122036798
1743439215480,12:40:15.480,77,-1,1599.2673992674,0.594738594738595,33.9064122036798
1743439215500,12:40:15.500,77,-1,1594.87179487179,0.598734598734599,33.9064122036798
1743439215519,12:40:15.519,77,-1,1588.27838827839,0.597846597846598,33.9064122036798
1743439215539,12:40:15.539,77,-1,1579.48717948718,0.593406593406593,33.9064122036798
1743439215558,12:40:15.558,77,-1,1579.48717948718,0.589410589410589,33.9064122036798
1743439215578,12:40:15.578,77,-1,1569.96336996337,0.59029859029859,33.9064122036798
1743439215597,12:40:15.597,77,-1,1534.06593406593,0.595626595626596,33.9064122036798
1743439215617,12:40:15.617,77,-1,1493.04029304029,0.598290598290598,33.9064122036798
1743439215636,12:40:15.636,77,-1,1456.41025641026,0.596958596958597,33.9064122036798
1743439215656,12:40:15.656,77,-1,1415.38461538462,0.592074592074592,33.9064122036798
1743439215675,12:40:15.675,77,-1,1395.6043956044,0.588522588522589,33.9064122036798
1743439215695,12:40:15.695,77,-1,1380.21978021978,0.58985458985459,33.9064122036798
1743439215714,12:40:15.714,77,-1,1350.18315018315,0.594738594738595,33.9114149808884
1743439215734,12:40:15.734,77,-1,1316.48351648352,0.596958596958597,33.9114149808884
1743439215753,12:40:15.753,77,-1,1302.5641025641,0.594738594738595,33.9114149808884
1743439215773,12:40:15.773,77,-1,1316.48351648352,0.589410589410589,33.9114149808884
1743439215792,12:40:15.792,77,-1,1336.26373626374,0.586746586746587,33.9114149808884
1743439215812,12:40:15.812,77,-1,1330.40293040293,0.588078588078588,33.9114149808884
1743439215831,12:40:15.831,77,-1,1308.42490842491,0.593406593406593,33.9114149808884
1743439215851,12:40:15.851,77,-1,1282.05128205128,0.595626595626596,33.9114149808884
1743439215870,12:40:15.870,77,-1,1254.94505494505,0.592962592962593,33.9114149808884
1743439215890,12:40:15.890,77,-1,1238.82783882784,0.586746586746587,33.9114149808884
1743439215909,12:40:15.909,77,-1,1224.17582417582,0.584082584082584,33.9114149808884
1743439215929,12:40:15.929,77,-1,1211.72161172161,0.585414585414585,33.9114149808884
1743439215948,12:40:15.948,77,-1,1207.32600732601,0.591630591630592,33.9114149808884
1743439215968,12:40:15.968,77,-1,1200,0.593406593406593,33.9114149808884
1743439215987,12:40:15.987,77,-1,1189.01098901099,0.591186591186591,33.9114149808884
1743439216007,12:40:16.007,77,-1,1178.75457875458,0.584970584970585,33.9114149808884
1743439216026,12:40:16.026,77,-1,1169.23076923077,0.581418581418581,33.9114149808884
1743439216046,12:40:16.046,77,-1,1161.90476190476,0.582306582306582,33.9114149808884
1743439216065,12:40:16.065,77,-1,1179.48717948718,0.586746586746587,33.9114149808884
1743439216085,12:40:16.085,77,-1,1194.87179487179,0.587634587634588,33.9114149808884
1743439216104,12:40:16.104,77,-1,1191.94139194139,0.584970584970585,33.9114149808884
1743439216124,12:40:16.124,77,-1,1186.08058608059,0.579198579198579,33.9114149808884
1743439216143,12:40:16.143,77,-1,1178.02197802198,0.578310578310578,33.9114149808884
1743439216163,12:40:16.163,73,-1,1171.42857142857,0.581418581418581,33.9114149808884
1743439216183,12:40:16.182,73,-1,1180.95238095238,0.586746586746587,33.9114149808884
1743439216202,12:40:16.202,73,-1,1222.71062271062,0.587634587634588,33.9114149808884
1743439216222,12:40:16.221,73,-1,1282.78388278388,0.588966588966589,33.9114149808884
1743439216241,12:40:16.241,73,-1,1358.24175824176,0.584970584970585,33.9114149808884
1743439216261,12:40:16.260,73,-1,1433.69963369963,0.584970584970585,33.9114149808884
1743439216280,12:40:16.280,73,-1,1495.2380952381,0.588966588966589,33.9114149808884
1743439216300,12:40:16.299,73,-1,1531.86813186813,0.594294594294594,33.9114149808884
1743439216319,12:40:16.319,73,-1,1549.45054945055,0.594294594294594,33.9114149808884
1743439216339,12:40:16.339,73,-1,1555.31135531136,0.590742590742591,33.9114149808884
1743439216358,12:40:16.358,73,-1,1550.18315018315,0.586302586302586,33.9114149808884
1743439216378,12:40:16.378,73,-1,1561.90476190476,0.585858585858586,33.9114149808884
1743439216397,12:40:16.397,73,-1,1566.30036630037,0.58985458985459,33.9114149808884
1743439216417,12:40:16.417,73,-1,1553.84615384615,0.594294594294594,33.9114149808884
1743439216436,12:40:16.436,73,-1,1536.26373626374,0.594294594294594,33.9114149808884
1743439216456,12:40:16.456,73,-1,1499.6336996337,0.58985458985459,33.9114149808884
1743439216475,12:40:16.475,73,-1,1461.53846153846,0.585414585414585,33.9114149808884
1743439216495,12:40:16.495,73,-1,1430.03663003663,0.585858585858586,33.9114149808884
1743439216514,12:40:16.514,73,-1,1402.9304029304,0.59029859029859,33.9114149808884
1743439216534,12:40:16.534,73,-1,1383.15018315018,0.594294594294594,33.9114149808884
1743439216553,12:40:16.553,73,-1,1372.16117216117,0.593406593406593,33.9114149808884
1743439216573,12:40:16.573,73,-1,1358.97435897436,0.588522588522589,33.9114149808884
1743439216592,12:40:16.592,73,-1,1355.31135531136,0.584970584970585,33.9114149808884
1743439216612,12:40:16.612,73,-1,1356.04395604396,0.585858585858586,33.9114149808884
1743439216631,12:40:16.631,73,-1,1343.58974358974,0.596514596514596,33.9114149808884
1743439216651,12:40:16.651,73,-1,1323.80952380952,0.603618603618604,33.9114149808884
1743439216670,12:40:16.670,73,-1,1308.42490842491,0.602730602730603,33.9114149808884
1743439216690,12:40:16.690,73,-1,1279.12087912088,0.597402597402597,33.9114149808884
1743439216709,12:40:16.709,73,-1,1262.27106227106,0.594294594294594,33.9114149808884
1743439216729,12:40:16.729,73,-1,1262.27106227106,0.594738594738595,33.9114149808884
1743439216748,12:40:16.748,73,-1,1267.39926739927,0.601842601842602,33.9114149808884
1743439216768,12:40:16.768,73,-1,1271.79487179487,0.608058608058608,33.9114149808884
1743439216787,12:40:16.787,73,-1,1257.87545787546,0.607170607170607,33.9114149808884
1743439216807,12:40:16.807,73,-1,1238.09523809524,0.601398601398601,33.9114149808884
1743439216826,12:40:16.826,73,-1,1224.90842490842,0.598734598734599,33.9114149808884
1743439216846,12:40:16.846,73,-1,1213.91941391941,0.6005106005106,33.9114149808884
1743439216865,12:40:16.865,73,-1,1213.91941391941,0.606726606726607,33.9114149808884
1743439216885,12:40:16.885,73,-1,1208.79120879121,0.608946608946609,33.9114149808884
1743439216904,12:40:16.904,73,-1,1208.79120879121,0.606726606726607,33.9114149808884
1743439216924,12:40:16.924,73,-1,1203.663003663,0.600954600954601,33.9114149808884
1743439216943,12:40:16.943,73,-1,1200.7326007326,0.598734598734599,33.9114149808884
1743439216963,12:40:16.963,73,-1,1197.0695970696,0.6005106005106,33.9114149808884
1743439216982,12:40:16.982,73,-1,1186.08058608059,0.605838605838606,33.9114149808884
1743439217002,12:40:17.002,73,-1,1177.28937728938,0.607614607614608,33.9114149808884
1743439217021,12:40:17.021,73,-1,1178.02197802198,0.605394605394605,33.9114149808884
1743439217041,12:40:17.041,73,-1,1197.0695970696,0.599178599178599,33.9114149808884
1743439217060,12:40:17.060,73,-1,1216.11721611722,0.597846597846598,33.9114149808884
1743439217080,12:40:17.080,73,-1,1232.23443223443,0.6000666000666,33.9114149808884
1743439217099,12:40:17.099,73,-1,1260.07326007326,0.605838605838606,33.9114149808884
1743439217119,12:40:17.119,73,-1,1298.1684981685,0.606726606726607,33.9114149808884
1743439217138,12:40:17.138,73,-1,1351.64835164835,0.604062604062604,33.9114149808884
1743439217158,12:40:17.158,73,-1,1400.7326007326,0.598290598290598,33.9114149808884
1743439217177,12:40:17.177,73,-1,1442.49084249084,0.596958596958597,33.9114149808884
1743439217197,12:40:17.197,73,-1,1476.19047619048,0.5996225996226,33.9114149808884
1743439217216,12:40:17.216,73,-1,1501.8315018315,0.604506604506604,33.9114149808884
1743439217236,12:40:17.236,73,-1,1523.07692307692,0.604950604950605,33.9114149808884
1743439217255,12:40:17.255,73,-1,1525.27472527473,0.601842601842602,33.9114149808884
1743439217275,12:40:17.275,73,-1,1512.08791208791,0.596514596514596,33.9114149808884
1743439217294,12:40:17.294,73,-1,1502.5641025641,0.596070596070596,33.9114149808884
1743439217314,12:40:17.314,73,-1,1490.84249084249,0.5996225996226,33.9114149808884
1743439217333,12:40:17.333,73,-1,1478.38827838828,0.604506604506604,33.9114149808884
1743439217353,12:40:17.353,73,-1,1463.00366300366,0.604950604950605,33.9114149808884
1743439217372,12:40:17.372,73,-1,1437.36263736264,0.600954600954601,33.9114149808884
1743439217392,12:40:17.392,73,-1,1406.59340659341,0.596514596514596,33.9114149808884
1743439217411,12:40:17.411,73,-1,1378.75457875458,0.596958596958597,33.9114149808884
1743439217431,12:40:17.431,73,-1,1363.36996336996,0.6005106005106,33.9114149808884
1743439217450,12:40:17.450,73,-1,1358.97435897436,0.604950604950605,33.9114149808884
1743439217470,12:40:17.470,73,-1,1352.38095238095,0.604950604950605,33.9114149808884
1743439217489,12:40:17.489,73,-1,1350.18315018315,0.6005106005106,33.9114149808884
1743439217509,12:40:17.509,73,-1,1337.72893772894,0.597846597846598,33.9114149808884
1743439217528,12:40:17.528,73,-1,1320.14652014652,0.601842601842602,33.9114149808884
1743439217548,12:40:17.548,73,-1,1302.5641025641,0.605394605394605,33.9114149808884
1743439217567,12:40:17.567,73,-1,1278.38827838828,0.608946608946609,33.9114149808884
1743439217587,12:40:17.587,73,-1,1254.94505494505,0.607614607614608,33.9114149808884
1743439217606,12:40:17.606,73,-1,1241.02564102564,0.601842601842602,33.9114149808884
1743439217626,12:40:17.626,73,-1,1245.42124542125,0.597402597402597,33.9114149808884
1743439217645,12:40:17.645,73,-1,1249.08424908425,0.598734598734599,33.9114149808884
1743439217665,12:40:17.665,73,-1,1249.08424908425,0.601842601842602,33.9114149808884
1743439217684,12:40:17.684,73,-1,1241.02564102564,0.603174603174603,33.9114149808884
1743439217704,12:40:17.704,73,-1,1224.17582417582,0.600954600954601,33.9064122036798
1743439217723,12:40:17.723,73,-1,1227.83882783883,0.596514596514596,33.9064122036798
1743439217743,12:40:17.743,73,-1,1227.10622710623,0.592518592518593,33.9064122036798
1743439217762,12:40:17.762,73,-1,1213.91941391941,0.592962592962593,33.9064122036798
1743439217782,12:40:17.782,73,-1,1206.59340659341,0.596958596958597,33.9064122036798
1743439217801,12:40:17.801,73,-1,1193.40659340659,0.596958596958597,33.9064122036798
1743439217821,12:40:17.821,73,-1,1186.81318681319,0.593850593850594,33.9064122036798
1743439217840,12:40:17.840,73,-1,1194.87179487179,0.587634587634588,33.9064122036798
1743439217860,12:40:17.860,70,-1,1200.7326007326,0.584082584082584,33.9064122036798
1743439217879,12:40:17.879,70,-1,1207.32600732601,0.585414585414585,33.9064122036798
1743439217899,12:40:17.899,70,-1,1203.663003663,0.59029859029859,33.9064122036798
1743439217918,12:40:17.918,70,-1,1191.94139194139,0.592962592962593,33.9064122036798
1743439217938,12:40:17.938,70,-1,1184.61538461538,0.591186591186591,33.9064122036798
1743439217957,12:40:17.957,70,-1,1180.95238095238,0.585414585414585,33.9064122036798
1743439217977,12:40:17.977,70,-1,1190.47619047619,0.582750582750583,33.9064122036798
1743439217996,12:40:17.996,70,-1,1202.9304029304,0.584526584526584,33.9064122036798
1743439218016,12:40:18.016,70,-1,1240.29304029304,0.589410589410589,33.9064122036798
1743439218035,12:40:18.035,70,-1,1292.30769230769,0.590742590742591,33.9064122036798
1743439218055,12:40:18.055,70,-1,1355.31135531136,0.588522588522589,33.9064122036798
1743439218074,12:40:18.074,70,-1,1400.7326007326,0.581418581418581,33.9064122036798
1743439218094,12:40:18.094,70,-1,1431.50183150183,0.578310578310578,33.9064122036798
1743439218113,12:40:18.113,70,-1,1452.01465201465,0.580974580974581,33.9064122036798
1743439218133,12:40:18.133,70,-1,1470.32967032967,0.585414585414585,33.9064122036798
1743439218152,12:40:18.152,70,-1,1476.19047619048,0.584970584970585,33.9064122036798
1743439218172,12:40:18.172,70,-1,1482.78388278388,0.582306582306582,33.9064122036798
1743439218191,12:40:18.191,70,-1,1495.2380952381,0.575202575202575,33.9064122036798
1743439218211,12:40:18.211,70,-1,1493.04029304029,0.574314574314574,33.9064122036798
1743439218230,12:40:18.230,70,-1,1485.71428571429,0.577422577422577,33.9064122036798
1743439218250,12:40:18.250,70,-1,1465.93406593407,0.580974580974581,33.9064122036798
1743439218269,12:40:18.269,70,-1,1431.50183150183,0.58053058053058,33.9064122036798
1743439218289,12:40:18.289,70,-1,1400.7326007326,0.576978576978577,33.9064122036798
1743439218308,12:40:18.308,70,-1,1380.95238095238,0.571650571650572,33.9064122036798
1743439218328,12:40:18.328,70,-1,1361.90476190476,0.572982572982573,33.9064122036798
1743439218347,12:40:18.347,70,-1,1359.70695970696,0.576978576978577,33.9064122036798
1743439218367,12:40:18.367,70,-1,1364.83516483516,0.581862581862582,33.9064122036798
1743439218386,12:40:18.386,70,-1,1367.03296703297,0.581862581862582,33.9064122036798
1743439218406,12:40:18.406,70,-1,1368.49816849817,0.578310578310578,33.9064122036798
1743439218425,12:40:18.425,70,-1,1357.50915750916,0.573870573870574,33.9064122036798
1743439218445,12:40:18.445,70,-1,1339.92673992674,0.574314574314574,33.9064122036798
1743439218464,12:40:18.464,70,-1,1316.48351648352,0.578754578754579,33.9064122036798
1743439218484,12:40:18.484,70,-1,1287.91208791209,0.583194583194583,33.9064122036798
1743439218503,12:40:18.503,70,-1,1279.85347985348,0.584526584526584,33.9064122036798
1743439218523,12:40:18.523,70,-1,1265.20146520147,0.58053058053058,33.9064122036798
1743439218542,12:40:18.542,70,-1,1238.09523809524,0.576090576090576,33.9064122036798
1743439218562,12:40:18.562,70,-1,1235.16483516484,0.576978576978577,33.9064122036798
1743439218581,12:40:18.581,70,-1,1230.76923076923,0.581862581862582,33.9064122036798
1743439218601,12:40:18.601,70,-1,1235.89743589744,0.585858585858586,33.9064122036798
1743439218620,12:40:18.620,72,-1,1239.56043956044,0.585858585858586,33.9064122036798
1743439218640,12:40:18.640,72,-1,1229.30402930403,0.581862581862582,33.9064122036798
1743439218659,12:40:18.659,72,-1,1227.10622710623,0.578754578754579,33.9064122036798
1743439218679,12:40:18.679,72,-1,1223.44322344322,0.579198579198579,33.9064122036798
1743439218698,12:40:18.698,72,-1,1206.59340659341,0.584526584526584,33.9064122036798
1743439218718,12:40:18.718,72,-1,1194.87179487179,0.588078588078588,33.9064122036798
1743439218737,12:40:18.737,72,-1,1193.40659340659,0.587190587190587,33.9064122036798
1743439218757,12:40:18.757,72,-1,1193.40659340659,0.581862581862582,33.9064122036798
1743439218776,12:40:18.776,72,-1,1189.74358974359,0.578310578310578,33.9064122036798
1743439218796,12:40:18.796,72,-1,1179.48717948718,0.57964257964258,33.9064122036798
1743439218815,12:40:18.815,72,-1,1168.49816849817,0.584970584970585,33.9064122036798
1743439218835,12:40:18.835,72,-1,1175.09157509158,0.587190587190587,33.9064122036798
1743439218854,12:40:18.854,72,-1,1184.61538461538,0.586746586746587,33.9064122036798
1743439218874,12:40:18.874,72,-1,1190.47619047619,0.581418581418581,33.9064122036798
1743439218893,12:40:18.893,72,-1,1184.61538461538,0.579198579198579,33.9064122036798
1743439218913,12:40:18.913,72,-1,1191.94139194139,0.580974580974581,33.9064122036798
1743439218932,12:40:18.932,72,-1,1224.17582417582,0.586746586746587,33.9064122036798
1743439218952,12:40:18.952,72,-1,1265.93406593407,0.588522588522589,33.9064122036798
1743439218971,12:40:18.971,72,-1,1311.35531135531,0.586302586302586,33.9064122036798
1743439218991,12:40:18.991,72,-1,1364.83516483516,0.57964257964258,33.9064122036798
1743439219010,12:40:19.010,72,-1,1400,0.578310578310578,33.9064122036798
1743439219030,12:40:19.030,72,-1,1419.04761904762,0.58008658008658,33.9064122036798
1743439219049,12:40:19.049,72,-1,1430.76923076923,0.585858585858586,33.9064122036798
1743439219069,12:40:19.069,72,-1,1441.75824175824,0.588966588966589,33.9064122036798
1743439219088,12:40:19.088,72,-1,1434.43223443223,0.587634587634588,33.9064122036798
1743439219108,12:40:19.108,72,-1,1423.44322344322,0.582306582306582,33.9064122036798
1743439219127,12:40:19.127,72,-1,1419.04761904762,0.580974580974581,33.9064122036798
1743439219147,12:40:19.147,72,-1,1416.11721611722,0.583194583194583,33.9064122036798
1743439219166,12:40:19.166,72,-1,1396.336996337,0.589410589410589,33.9064122036798
1743439219186,12:40:19.186,72,-1,1375.09157509157,0.591186591186591,33.9064122036798
1743439219205,12:40:19.205,72,-1,1369.23076923077,0.588522588522589,33.9064122036798
1743439219225,12:40:19.225,72,-1,1356.04395604396,0.583194583194583,33.9064122036798
1743439219244,12:40:19.244,72,-1,1339.19413919414,0.582306582306582,33.9064122036798
1743439219264,12:40:19.264,72,-1,1330.40293040293,0.584970584970585,33.9064122036798
1743439219283,12:40:19.283,72,-1,1317.21611721612,0.59029859029859,33.9064122036798
1743439219303,12:40:19.303,72,-1,1283.51648351648,0.591186591186591,33.9064122036798
1743439219322,12:40:19.322,72,-1,1261.53846153846,0.588966588966589,33.9064122036798
1743439219342,12:40:19.342,72,-1,1256.41025641026,0.584082584082584,33.9064122036798
1743439219361,12:40:19.361,72,-1,1282.05128205128,0.583638583638584,33.9064122036798
1743439219381,12:40:19.381,72,-1,1305.49450549451,0.586302586302586,33.9064122036798
1743439219400,12:40:19.400,72,-1,1307.69230769231,0.591630591630592,33.9064122036798
1743439219420,12:40:19.420,79,-1,1299.6336996337,0.591630591630592,33.9064122036798
1743439219439,12:40:19.439,79,-1,1295.2380952381,0.588522588522589,33.9064122036798
1743439219459,12:40:19.459,79,-1,1271.79487179487,0.583638583638584,33.9064122036798
1743439219478,12:40:19.478,79,-1,1254.21245421245,0.583194583194583,33.9064122036798
1743439219498,12:40:19.498,79,-1,1242.49084249084,0.587634587634588,33.9064122036798
1743439219517,12:40:19.517,79,-1,1236.63003663004,0.592074592074592,33.9064122036798
1743439219537,12:40:19.537,79,-1,1226.37362637363,0.592074592074592,33.9064122036798
1743439219556,12:40:19.556,79,-1,1215.38461538462,0.587634587634588,33.9064122036798
1743439219576,12:40:19.576,79,-1,1213.91941391941,0.583638583638584,33.9064122036798
1743439219595,12:40:19.595,79,-1,1213.91941391941,0.584082584082584,33.9064122036798
1743439219615,12:40:19.615,79,-1,1211.72161172161,0.588078588078588,33.9064122036798
1743439219634,12:40:19.634,79,-1,1230.03663003663,0.591630591630592,33.9064122036798
1743439219654,12:40:19.654,79,-1,1245.42124542125,0.590742590742591,33.9064122036798
1743439219673,12:40:19.673,79,-1,1257.87545787546,0.586746586746587,33.9064122036798
1743439219693,12:40:19.693,79,-1,1253.47985347985,0.582306582306582,33.9014094206505
1743439219712,12:40:19.712,79,-1,1242.49084249084,0.582306582306582,33.9014094206505
1743439219732,12:40:19.732,79,-1,1252.01465201465,0.586302586302586,33.9014094206505
1743439219751,12:40:19.751,79,-1,1283.51648351648,0.589410589410589,33.9014094206505
1743439219771,12:40:19.771,79,-1,1326.00732600733,0.588966588966589,33.9014094206505
1743439219790,12:40:19.790,79,-1,1372.16117216117,0.584082584082584,33.9014094206505
