RawTimestamp,LocalTime,HR_Direct,HR_Buffered,PPG,GSR,Temperature
1743371063322,17:44:23.322,-1,-1,0,7.38982272083317,26.4608428180218
1743371063342,17:44:23.342,-1,-1,0,7.38982272083317,26.4608428180218
1743371063361,17:44:23.361,-1,-1,0,1.3303446139267,26.4608428180218
1743371063381,17:44:23.381,-1,-1,0,1.3303446139267,26.4608428180218
1743371063400,17:44:23.400,-1,-1,0,1.3303446139267,26.4608428180218
1743371063420,17:44:23.420,-1,-1,0,1.3303446139267,26.4608428180218
1743371063439,17:44:23.439,-1,-1,0,1.3303446139267,26.4608428180218
1743371063459,17:44:23.459,-1,-1,0,1.29417620706819,26.4608428180218
1743371063478,17:44:23.478,-1,-1,0,1.29417620706819,26.4608428180218
1743371063498,17:44:23.498,-1,-1,0,1.29417620706819,26.4608428180218
1743371063517,17:44:23.517,-1,-1,0,1.29417620706819,26.4608428180218
1743371063537,17:44:23.537,-1,-1,0,1.29417620706819,26.4608428180218
1743371063556,17:44:23.556,-1,-1,0,1.29010989010989,26.4608428180218
1743371063576,17:44:23.576,-1,-1,0,1.29010989010989,26.4608428180218
1743371063595,17:44:23.595,-1,-1,0,1.29010989010989,26.4608428180218
1743371063615,17:44:23.615,-1,-1,0,1.29010989010989,26.4608428180218
1743371063634,17:44:23.634,-1,-1,0,1.29010989010989,26.4608428180218
1743371063654,17:44:23.654,-1,-1,0,1.28604728604729,26.4608428180218
1743371063673,17:44:23.673,-1,-1,0,1.28649128649129,26.4608428180218
1743371063693,17:44:23.693,-1,-1,0,1.28693528693529,26.4608428180218
1743371063712,17:44:23.712,-1,-1,0,1.28737928737929,26.4608428180218
1743371063732,17:44:23.732,-1,-1,0,1.28782328782329,26.4608428180218
1743371063751,17:44:23.751,-1,-1,0,1.28871128871129,26.4608428180218
1743371063771,17:44:23.771,-1,-1,0,1.28915528915529,26.4608428180218
1743371063790,17:44:23.790,-1,-1,0,1.28959928959929,26.4608428180218
1743371063810,17:44:23.810,-1,-1,0,1.28959928959929,26.4608428180218
1743371063829,17:44:23.829,-1,-1,0,1.29004329004329,26.4608428180218
1743371063849,17:44:23.849,-1,-1,0,1.29004329004329,26.4608428180218
1743371063868,17:44:23.868,-1,-1,0,1.29004329004329,26.4608428180218
1743371063888,17:44:23.888,-1,-1,0,1.29004329004329,26.4608428180218
1743371063907,17:44:23.907,-1,-1,0,1.29048729048729,26.4608428180218
1743371063927,17:44:23.927,-1,-1,0,1.29093129093129,26.4608428180218
1743371063946,17:44:23.946,-1,-1,0,1.29093129093129,26.4608428180218
1743371063966,17:44:23.966,-1,-1,0,1.29093129093129,26.4608428180218
1743371063985,17:44:23.985,-1,-1,0,1.29093129093129,26.4608428180218
1743371064005,17:44:24.005,-1,-1,0,1.29093129093129,26.4608428180218
1743371064024,17:44:24.024,-1,-1,0,1.29137529137529,26.4608428180218
1743371064044,17:44:24.044,-1,-1,0,1.29093129093129,26.4608428180218
1743371064063,17:44:24.063,-1,-1,0,1.29048729048729,26.4608428180218
1743371064083,17:44:24.083,-1,-1,0,1.29048729048729,26.4608428180218
1743371064102,17:44:24.102,-1,-1,0,1.29048729048729,26.4608428180218
1743371064122,17:44:24.122,-1,-1,0,1.29048729048729,26.4608428180218
1743371064141,17:44:24.141,-1,-1,0,1.29004329004329,26.4608428180218
1743371064161,17:44:24.161,-1,-1,0,1.28959928959929,26.4608428180218
1743371064180,17:44:24.180,-1,-1,0,1.28915528915529,26.4608428180218
1743371064200,17:44:24.200,-1,-1,0,1.28871128871129,26.4608428180218
1743371064219,17:44:24.219,-1,-1,0,1.28826728826729,26.4608428180218
1743371064239,17:44:24.239,-1,-1,0,1.28782328782329,32.8406879971735
1743371064258,17:44:24.258,-1,-1,0,1.28737928737929,32.8406879971735
1743371064278,17:44:24.278,-1,-1,0,1.28737928737929,32.8406879971735
1743371064297,17:44:24.297,-1,-1,0,1.28649128649129,32.8406879971735
1743371064317,17:44:24.317,-1,-1,0,1.28604728604729,32.8406879971735
1743371064336,17:44:24.336,-1,-1,0,1.28560328560329,32.8406879971735
1743371064356,17:44:24.356,-1,-1,0,1.28560328560329,32.8406879971735
1743371064375,17:44:24.375,-1,-1,0,1.28515928515929,32.8406879971735
1743371064395,17:44:24.395,-1,-1,0,1.28471528471528,32.8406879971735
1743371064414,17:44:24.414,-1,-1,0,1.28471528471528,32.8406879971735
1743371064434,17:44:24.434,-1,-1,0,1.28382728382728,32.8406879971735
1743371064453,17:44:24.453,-1,-1,0,1.28382728382728,32.8406879971735
1743371064473,17:44:24.473,-1,-1,0,1.28338328338328,32.8406879971735
1743371064492,17:44:24.492,-1,-1,0,1.28338328338328,32.8406879971735
1743371064512,17:44:24.512,-1,-1,0,1.28249528249528,32.8406879971735
1743371064531,17:44:24.531,-1,-1,0,1.28160728160728,32.8406879971735
1743371064551,17:44:24.551,-1,-1,0,1.28116328116328,32.8406879971735
1743371064570,17:44:24.570,-1,-1,0,1.28027528027528,32.8406879971735
1743371064590,17:44:24.590,-1,-1,0,1.27894327894328,32.8406879971735
1743371064609,17:44:24.609,-1,-1,0,1.27805527805528,32.8406879971735
1743371064629,17:44:24.629,-1,-1,0,1.27761127761128,32.8406879971735
1743371064648,17:44:24.648,-1,-1,0,1.27627927627928,32.8406879971735
1743371064668,17:44:24.668,-1,-1,0,1.27539127539128,32.8406879971735
1743371064687,17:44:24.687,-1,-1,0,1.27539127539128,32.8406879971735
1743371064707,17:44:24.707,-1,-1,0,1.27494727494727,32.8406879971735
1743371064726,17:44:24.726,-1,-1,0,1.27405927405927,32.8406879971735
1743371064746,17:44:24.746,-1,-1,0,1.27361527361527,32.8406879971735
1743371064765,17:44:24.765,-1,-1,0,1.27317127317127,32.8406879971735
1743371064785,17:44:24.785,-1,-1,6.59340659340659,1.27272727272727,32.8406879971735
1743371064804,17:44:24.804,-1,-1,332.600732600733,1.27317127317127,32.8406879971735
1743371064824,17:44:24.824,-1,-1,690.10989010989,1.27494727494727,32.8406879971735
1743371064843,17:44:24.843,-1,-1,940.659340659341,1.27938727938728,32.8406879971735
1743371064863,17:44:24.863,-1,-1,1100.3663003663,1.28293928293928,32.8406879971735
1743371064882,17:44:24.882,-1,-1,1189.01098901099,1.28471528471528,32.8406879971735
1743371064902,17:44:24.902,-1,-1,1224.17582417582,1.28515928515929,32.8406879971735
1743371064921,17:44:24.921,-1,-1,1211.72161172161,1.28604728604729,32.8406879971735
1743371064941,17:44:24.941,-1,-1,1194.87179487179,1.28649128649129,32.8406879971735
1743371064960,17:44:24.960,-1,-1,1176.55677655678,1.28693528693529,32.8406879971735
1743371064980,17:44:24.980,-1,-1,1156.77655677656,1.28782328782329,32.8406879971735
1743371064999,17:44:24.999,-1,-1,1133.33333333333,1.28871128871129,32.8406879971735
1743371065019,17:44:25.019,-1,-1,1116.48351648352,1.28959928959929,32.8406879971735
1743371065038,17:44:25.038,-1,-1,1128.93772893773,1.29137529137529,32.8406879971735
1743371065058,17:44:25.058,-1,-1,1138.46153846154,1.29181929181929,32.8406879971735
1743371065077,17:44:25.077,-1,-1,1133.33333333333,1.29315129315129,32.8406879971735
1743371065097,17:44:25.097,-1,-1,1148.71794871795,1.29315129315129,32.8406879971735
1743371065116,17:44:25.116,-1,-1,1205.12820512821,1.29270729270729,32.8406879971735
1743371065136,17:44:25.136,-1,-1,1304.0293040293,1.29315129315129,32.8406879971735
1743371065155,17:44:25.155,-1,-1,1410.25641025641,1.29359529359529,32.8406879971735
1743371065175,17:44:25.175,-1,-1,1521.61172161172,1.29359529359529,32.8406879971735
1743371065194,17:44:25.194,-1,-1,1616.11721611722,1.29403929403929,32.8406879971735
1743371065214,17:44:25.214,-1,-1,1693.77289377289,1.29403929403929,32.8406879971735
1743371065233,17:44:25.233,-1,-1,1753.84615384615,1.29448329448329,32.8557000308065
1743371065253,17:44:25.253,-1,-1,1789.01098901099,1.29448329448329,32.8557000308065
1743371065272,17:44:25.272,-1,-1,1790.47619047619,1.29492729492729,32.8557000308065
1743371065292,17:44:25.292,-1,-1,1780.21978021978,1.29492729492729,32.8557000308065
1743371065311,17:44:25.311,-1,-1,1778.02197802198,1.29492729492729,32.8557000308065
1743371065331,17:44:25.331,-1,-1,1769.96336996337,1.29403929403929,32.8557000308065
1743371065350,17:44:25.350,-1,-1,1740.65934065934,1.29315129315129,32.8557000308065
1743371065370,17:44:25.370,-1,-1,1695.2380952381,1.29315129315129,32.8557000308065
1743371065389,17:44:25.389,-1,-1,1649.08424908425,1.29315129315129,32.8557000308065
1743371065409,17:44:25.409,-1,-1,1608.79120879121,1.29270729270729,32.8557000308065
1743371065428,17:44:25.428,-1,-1,1580.21978021978,1.29359529359529,32.8557000308065
1743371065448,17:44:25.448,-1,-1,1546.52014652015,1.2967032967033,32.8557000308065
1743371065467,17:44:25.467,-1,-1,1523.80952380952,1.2984792984793,32.8557000308065
1743371065487,17:44:25.487,-1,-1,1495.9706959707,1.2989232989233,32.8557000308065
1743371065506,17:44:25.506,-1,-1,1471.06227106227,1.2989232989233,32.8557000308065
1743371065526,17:44:25.526,-1,-1,1452.01465201465,1.2989232989233,32.8557000308065
1743371065545,17:44:25.545,-1,-1,1424.17582417582,1.2984792984793,32.8557000308065
1743371065565,17:44:25.565,-1,-1,1384.61538461538,1.2980352980353,32.8557000308065
1743371065584,17:44:25.584,-1,-1,1362.63736263736,1.2980352980353,32.8557000308065
1743371065604,17:44:25.604,-1,-1,1340.65934065934,1.2980352980353,32.8557000308065
1743371065623,17:44:25.623,-1,-1,1330.40293040293,1.2984792984793,32.8557000308065
1743371065643,17:44:25.643,-1,-1,1319.41391941392,1.2984792984793,32.8557000308065
1743371065662,17:44:25.662,-1,-1,1303.2967032967,1.2984792984793,32.8557000308065
1743371065682,17:44:25.682,-1,-1,1280.58608058608,1.2984792984793,32.8557000308065
1743371065701,17:44:25.701,-1,-1,1268.86446886447,1.2984792984793,32.8557000308065
1743371065721,17:44:25.721,-1,-1,1265.93406593407,1.2989232989233,32.8557000308065
1743371065740,17:44:25.740,-1,-1,1265.20146520147,1.2989232989233,32.8557000308065
1743371065760,17:44:25.760,-1,-1,1255.67765567766,1.2989232989233,32.8557000308065
1743371065779,17:44:25.779,-1,-1,1230.03663003663,1.2989232989233,32.8557000308065
1743371065799,17:44:25.799,-1,-1,1213.18681318681,1.2989232989233,32.8557000308065
1743371065818,17:44:25.818,-1,-1,1208.79120879121,1.2989232989233,32.8557000308065
1743371065838,17:44:25.838,-1,-1,1200.7326007326,1.2993672993673,32.8557000308065
1743371065857,17:44:25.857,-1,-1,1175.09157509158,1.2993672993673,32.8557000308065
1743371065877,17:44:25.877,-1,-1,1159.70695970696,1.2989232989233,32.8557000308065
1743371065896,17:44:25.896,-1,-1,1158.24175824176,1.2989232989233,32.8557000308065
1743371065916,17:44:25.916,-1,-1,1169.96336996337,1.2984792984793,32.8557000308065
1743371065935,17:44:25.935,-1,-1,1170.69597069597,1.2984792984793,32.8557000308065
1743371065955,17:44:25.955,-1,-1,1163.36996336996,1.2984792984793,32.8557000308065
1743371065974,17:44:25.974,-1,-1,1143.58974358974,1.2984792984793,32.8557000308065
1743371065994,17:44:25.994,-1,-1,1128.93772893773,1.2980352980353,32.8557000308065
1743371066013,17:44:26.013,-1,-1,1131.86813186813,1.2975912975913,32.8557000308065
1743371066033,17:44:26.033,-1,-1,1157.50915750916,1.2975912975913,32.8557000308065
1743371066053,17:44:26.052,-1,-1,1225.64102564103,1.2975912975913,32.8557000308065
1743371066072,17:44:26.072,-1,-1,1342.12454212454,1.2971472971473,32.8557000308065
1743371066092,17:44:26.091,-1,-1,1467.39926739927,1.2971472971473,32.8557000308065
1743371066111,17:44:26.111,-1,-1,1575.82417582418,1.2967032967033,32.8557000308065
1743371066131,17:44:26.130,-1,-1,1668.86446886447,1.2967032967033,32.8557000308065
1743371066150,17:44:26.150,-1,-1,1723.07692307692,1.2962592962593,32.8557000308065
1743371066170,17:44:26.170,-1,-1,1751.64835164835,1.2962592962593,32.8557000308065
1743371066189,17:44:26.189,-1,-1,1759.70695970696,1.2962592962593,32.8557000308065
1743371066209,17:44:26.209,-1,-1,1747.25274725275,1.2962592962593,32.8557000308065
1743371066228,17:44:26.228,-1,-1,1739.92673992674,1.2958152958153,32.8707120120525
1743371066248,17:44:26.248,-1,-1,1731.13553113553,1.2958152958153,32.8707120120525
1743371066267,17:44:26.267,-1,-1,1709.15750915751,1.2953712953713,32.8707120120525
1743371066287,17:44:26.287,-1,-1,1682.05128205128,1.2953712953713,32.8707120120525
1743371066306,17:44:26.306,-1,-1,1627.10622710623,1.29492729492729,32.8707120120525
1743371066326,17:44:26.326,-1,-1,1565.56776556777,1.29492729492729,32.8707120120525
1743371066345,17:44:26.345,-1,-1,1518.68131868132,1.29492729492729,32.8707120120525
1743371066365,17:44:26.365,-1,-1,1490.84249084249,1.29448329448329,32.8707120120525
1743371066384,17:44:26.384,-1,-1,1465.20146520146,1.29403929403929,32.8707120120525
1743371066404,17:44:26.404,-1,-1,1447.61904761905,1.29403929403929,32.8707120120525
1743371066423,17:44:26.423,-1,-1,1441.02564102564,1.29359529359529,32.8707120120525
1743371066443,17:44:26.443,-1,-1,1430.76923076923,1.29315129315129,32.8707120120525
1743371066462,17:44:26.462,-1,-1,1417.58241758242,1.29270729270729,32.8707120120525
1743371066482,17:44:26.482,-1,-1,1404.3956043956,1.29226329226329,32.8707120120525
1743371066501,17:44:26.501,-1,-1,1394.87179487179,1.29226329226329,32.8707120120525
1743371066521,17:44:26.521,-1,-1,1378.02197802198,1.29181929181929,32.8707120120525
1743371066540,17:44:26.540,-1,-1,1351.64835164835,1.29181929181929,32.8707120120525
1743371066560,17:44:26.560,-1,-1,1329.67032967033,1.29181929181929,32.8707120120525
1743371066579,17:44:26.579,-1,-1,1307.69230769231,1.29137529137529,32.8707120120525
1743371066599,17:44:26.599,-1,-1,1286.44688644689,1.29137529137529,32.8707120120525
1743371066618,17:44:26.618,-1,-1,1251.28205128205,1.29093129093129,32.8707120120525
1743371066638,17:44:26.638,-1,-1,1221.97802197802,1.29137529137529,32.8707120120525
1743371066657,17:44:26.657,-1,-1,1215.38461538462,1.29137529137529,32.8707120120525
1743371066677,17:44:26.677,-1,-1,1215.38461538462,1.29137529137529,32.8707120120525
1743371066696,17:44:26.696,-1,-1,1212.45421245421,1.29093129093129,32.8707120120525
1743371066716,17:44:26.716,-1,-1,1208.79120879121,1.29093129093129,32.8707120120525
1743371066735,17:44:26.735,-1,-1,1204.3956043956,1.29093129093129,32.8707120120525
1743371066755,17:44:26.755,-1,-1,1206.59340659341,1.29048729048729,32.8707120120525
1743371066774,17:44:26.774,-1,-1,1188.27838827839,1.29093129093129,32.8707120120525
1743371066794,17:44:26.794,-1,-1,1164.83516483516,1.29048729048729,32.8707120120525
1743371066813,17:44:26.813,-1,-1,1158.24175824176,1.29048729048729,32.8707120120525
1743371066833,17:44:26.833,-1,-1,1161.90476190476,1.29048729048729,32.8707120120525
1743371066852,17:44:26.852,-1,-1,1163.36996336996,1.29004329004329,32.8707120120525
1743371066872,17:44:26.872,-1,-1,1154.57875457875,1.29004329004329,32.8707120120525
1743371066891,17:44:26.891,-1,-1,1142.12454212454,1.29004329004329,32.8707120120525
1743371066911,17:44:26.911,-1,-1,1141.39194139194,1.29004329004329,32.8707120120525
1743371066930,17:44:26.930,-1,-1,1176.55677655678,1.28959928959929,32.8707120120525
1743371066950,17:44:26.950,-1,-1,1263.00366300366,1.28915528915529,32.8707120120525
1743371066969,17:44:26.969,-1,-1,1386.08058608059,1.28915528915529,32.8707120120525
1743371066989,17:44:26.989,-1,-1,1509.15750915751,1.28915528915529,32.8707120120525
1743371067008,17:44:27.008,-1,-1,1596.336996337,1.28871128871129,32.8707120120525
1743371067028,17:44:27.028,-1,-1,1654.94505494505,1.28871128871129,32.8707120120525
1743371067047,17:44:27.047,-1,-1,1679.85347985348,1.28826728826729,32.8707120120525
1743371067067,17:44:27.067,-1,-1,1681.31868131868,1.28826728826729,32.8707120120525
1743371067086,17:44:27.086,-1,-1,1670.32967032967,1.28826728826729,32.8707120120525
1743371067106,17:44:27.106,-1,-1,1650.54945054945,1.28782328782329,32.8707120120525
1743371067125,17:44:27.125,-1,-1,1629.30402930403,1.29270729270729,32.8707120120525
1743371067145,17:44:27.145,-1,-1,1602.9304029304,1.29403929403929,32.8707120120525
1743371067164,17:44:27.164,-1,-1,1572.89377289377,1.29359529359529,32.8707120120525
1743371067184,17:44:27.184,-1,-1,1526.73992673993,1.29270729270729,32.8707120120525
1743371067203,17:44:27.203,-1,-1,1478.38827838828,1.29181929181929,32.8707120120525
1743371067223,17:44:27.223,-1,-1,1444.68864468864,1.29137529137529,32.8707120120525
1743371067242,17:44:27.242,-1,-1,1416.84981684982,1.29093129093129,32.8707120120525
1743371067262,17:44:27.262,-1,-1,1404.3956043956,1.29048729048729,32.8707120120525
1743371067281,17:44:27.281,-1,-1,1392.67399267399,1.29004329004329,32.8707120120525
1743371067301,17:44:27.301,-1,-1,1393.40659340659,1.28915528915529,32.8707120120525
1743371067320,17:44:27.320,-1,-1,1386.08058608059,1.28915528915529,32.8707120120525
1743371067340,17:44:27.340,-1,-1,1389.01098901099,1.28871128871129,32.8707120120525
1743371067359,17:44:27.359,-1,-1,1380.95238095238,1.28826728826729,32.8707120120525
1743371067379,17:44:27.379,-1,-1,1355.31135531136,1.28782328782329,32.8707120120525
1743371067398,17:44:27.398,-1,-1,1324.54212454212,1.28737928737929,32.8707120120525
1743371067418,17:44:27.418,-1,-1,1299.6336996337,1.28693528693529,32.8707120120525
1743371067437,17:44:27.437,-1,-1,1287.17948717949,1.28649128649129,32.8707120120525
1743371067457,17:44:27.457,-1,-1,1271.06227106227,1.28604728604729,32.8707120120525
1743371067476,17:44:27.476,-1,-1,1255.67765567766,1.28604728604729,32.8707120120525
1743371067496,17:44:27.496,-1,-1,1241.02564102564,1.28560328560329,32.8707120120525
1743371067515,17:44:27.515,-1,-1,1223.44322344322,1.28515928515929,32.8707120120525
1743371067535,17:44:27.535,-1,-1,1205.12820512821,1.28471528471528,32.8707120120525
1743371067554,17:44:27.554,-1,-1,1186.08058608059,1.28471528471528,32.8707120120525
1743371067574,17:44:27.574,-1,-1,1175.82417582418,1.28427128427128,32.8707120120525
1743371067593,17:44:27.593,-1,-1,1162.63736263736,1.28427128427128,32.8707120120525
1743371067613,17:44:27.613,-1,-1,1159.70695970696,1.28427128427128,32.8707120120525
1743371067632,17:44:27.632,-1,-1,1171.42857142857,1.28382728382728,32.8707120120525
1743371067652,17:44:27.652,-1,-1,1184.61538461538,1.28382728382728,32.8707120120525
1743371067671,17:44:27.671,-1,-1,1191.20879120879,1.28427128427128,32.8707120120525
1743371067691,17:44:27.691,-1,-1,1178.02197802198,1.28427128427128,32.8707120120525
1743371067710,17:44:27.710,-1,-1,1163.36996336996,1.28427128427128,32.8707120120525
1743371067730,17:44:27.730,-1,-1,1178.75457875458,1.28427128427128,32.8707120120525
1743371067749,17:44:27.749,-1,-1,1228.57142857143,1.28382728382728,32.8707120120525
1743371067769,17:44:27.769,-1,-1,1309.89010989011,1.28382728382728,32.8707120120525
1743371067788,17:44:27.788,-1,-1,1409.52380952381,1.28382728382728,32.8707120120525
1743371067808,17:44:27.808,-1,-1,1503.2967032967,1.28382728382728,32.8707120120525
1743371067827,17:44:27.827,-1,-1,1575.82417582418,1.28382728382728,32.8707120120525
1743371067847,17:44:27.847,-1,-1,1626.37362637363,1.28382728382728,32.8707120120525
1743371067866,17:44:27.866,-1,-1,1650.54945054945,1.28338328338328,32.8707120120525
1743371067886,17:44:27.886,-1,-1,1641.75824175824,1.28338328338328,32.8707120120525
1743371067905,17:44:27.905,-1,-1,1617.58241758242,1.28338328338328,32.8707120120525
1743371067925,17:44:27.925,-1,-1,1613.91941391941,1.28382728382728,32.8707120120525
1743371067944,17:44:27.944,-1,-1,1609.52380952381,1.28338328338328,32.8707120120525
1743371067964,17:44:27.964,-1,-1,1582.41758241758,1.28338328338328,32.8707120120525
1743371067983,17:44:27.983,-1,-1,1539.92673992674,1.28338328338328,32.8707120120525
1743371068003,17:44:28.003,-1,-1,1498.9010989011,1.28338328338328,32.8707120120525
1743371068022,17:44:28.022,-1,-1,1457.87545787546,1.28338328338328,32.8707120120525
1743371068042,17:44:28.042,-1,-1,1413.91941391941,1.28338328338328,32.8707120120525
1743371068061,17:44:28.061,-1,-1,1391.94139194139,1.28293928293928,32.8707120120525
1743371068081,17:44:28.081,-1,-1,1402.1978021978,1.28205128205128,32.8707120120525
1743371068100,17:44:28.100,-1,-1,1408.05860805861,1.28160728160728,32.8707120120525
1743371068120,17:44:28.120,-1,-1,1392.67399267399,1.28160728160728,32.8707120120525
1743371068139,17:44:28.139,-1,-1,1376.55677655678,1.28116328116328,32.8707120120525
1743371068159,17:44:28.159,-1,-1,1358.97435897436,1.28116328116328,32.8707120120525
1743371068178,17:44:28.178,-1,-1,1341.39194139194,1.28071928071928,32.8707120120525
1743371068198,17:44:28.198,-1,-1,1317.21611721612,1.28071928071928,32.8707120120525
1743371068217,17:44:28.217,-1,-1,1309.89010989011,1.28071928071928,32.8857239409117
1743371068237,17:44:28.237,-1,-1,1304.0293040293,1.28027528027528,32.8857239409117
1743371068256,17:44:28.256,-1,-1,1289.37728937729,1.28027528027528,32.8857239409117
1743371068276,17:44:28.276,-1,-1,1282.05128205128,1.27983127983128,32.8857239409117
1743371068295,17:44:28.295,-1,-1,1260.80586080586,1.27983127983128,32.8857239409117
1743371068315,17:44:28.315,-1,-1,1227.83882783883,1.27983127983128,32.8857239409117
1743371068334,17:44:28.334,-1,-1,1205.86080586081,1.27983127983128,32.8857239409117
1743371068354,17:44:28.354,-1,-1,1189.74358974359,1.27983127983128,32.8857239409117
1743371068373,17:44:28.373,-1,-1,1175.09157509158,1.27983127983128,32.8857239409117
1743371068393,17:44:28.393,-1,-1,1175.09157509158,1.28027528027528,32.8857239409117
1743371068412,17:44:28.412,-1,-1,1178.75457875458,1.28027528027528,32.8857239409117
1743371068432,17:44:28.432,-1,-1,1181.68498168498,1.28027528027528,32.8857239409117
1743371068451,17:44:28.451,-1,-1,1183.15018315018,1.28027528027528,32.8857239409117
1743371068471,17:44:28.471,-1,-1,1172.16117216117,1.28027528027528,32.8857239409117
1743371068490,17:44:28.490,-1,-1,1167.03296703297,1.28027528027528,32.8857239409117
1743371068510,17:44:28.510,-1,-1,1159.70695970696,1.28027528027528,32.8857239409117
1743371068529,17:44:28.529,-1,-1,1160.43956043956,1.28027528027528,32.8857239409117
1743371068549,17:44:28.549,-1,-1,1172.16117216117,1.28027528027528,32.8857239409117
1743371068568,17:44:28.568,-1,-1,1200.7326007326,1.28027528027528,32.8857239409117
1743371068588,17:44:28.588,-1,-1,1262.27106227106,1.28027528027528,32.8857239409117
1743371068607,17:44:28.607,-1,-1,1347.98534798535,1.28027528027528,32.8857239409117
1743371068627,17:44:28.627,-1,-1,1435.89743589744,1.28027528027528,32.8857239409117
1743371068646,17:44:28.646,-1,-1,1512.08791208791,1.28027528027528,32.8857239409117
1743371068666,17:44:28.666,-1,-1,1578.02197802198,1.27983127983128,32.8857239409117
1743371068685,17:44:28.685,-1,-1,1609.52380952381,1.27983127983128,32.8857239409117
1743371068705,17:44:28.705,-1,-1,1618.31501831502,1.27938727938728,32.8857239409117
1743371068724,17:44:28.724,-1,-1,1610.98901098901,1.27938727938728,32.8857239409117
1743371068744,17:44:28.744,-1,-1,1590.47619047619,1.27938727938728,32.8857239409117
1743371068763,17:44:28.763,-1,-1,1578.02197802198,1.27894327894328,32.8857239409117
1743371068783,17:44:28.783,-1,-1,1573.62637362637,1.27849927849928,32.8857239409117
1743371068802,17:44:28.802,-1,-1,1559.70695970696,1.27849927849928,32.8857239409117
1743371068822,17:44:28.822,-1,-1,1528.20512820513,1.27849927849928,32.8857239409117
1743371068841,17:44:28.841,-1,-1,1487.17948717949,1.27849927849928,32.8857239409117
1743371068861,17:44:28.861,-1,-1,1447.61904761905,1.27805527805528,32.8857239409117
1743371068880,17:44:28.880,-1,-1,1415.38461538462,1.27805527805528,32.8857239409117
1743371068900,17:44:28.900,-1,-1,1394.87179487179,1.27761127761128,32.8857239409117
1743371068919,17:44:28.919,-1,-1,1388.27838827839,1.27761127761128,32.8857239409117
1743371068939,17:44:28.939,-1,-1,1391.94139194139,1.27761127761128,32.8857239409117
1743371068958,17:44:28.958,-1,-1,1383.88278388278,1.27805527805528,32.8857239409117
1743371068978,17:44:28.978,-1,-1,1375.82417582418,1.27761127761128,32.8857239409117
1743371068997,17:44:28.997,-1,-1,1349.45054945055,1.27761127761128,32.8857239409117
1743371069017,17:44:29.017,-1,-1,1320.87912087912,1.27716727716728,32.8857239409117
1743371069036,17:44:29.036,-1,-1,1301.0989010989,1.27761127761128,32.8857239409117
1743371069056,17:44:29.056,-1,-1,1284.98168498168,1.27716727716728,32.8857239409117
1743371069075,17:44:29.075,-1,-1,1279.12087912088,1.27761127761128,32.8857239409117
1743371069095,17:44:29.095,-1,-1,1264.46886446886,1.27716727716728,32.8857239409117
1743371069114,17:44:29.114,-1,-1,1248.35164835165,1.27716727716728,32.8857239409117
1743371069134,17:44:29.134,-1,-1,1233.69963369963,1.27672327672328,32.8857239409117
1743371069153,17:44:29.153,-1,-1,1218.31501831502,1.27672327672328,32.8857239409117
1743371069173,17:44:29.173,-1,-1,1199.2673992674,1.27672327672328,32.8857239409117
1743371069192,17:44:29.192,-1,-1,1192.67399267399,1.27672327672328,32.8857239409117
1743371069212,17:44:29.212,-1,-1,1184.61538461538,1.27672327672328,32.8907279055566
1743371069231,17:44:29.231,-1,-1,1174.35897435897,1.27672327672328,32.8907279055566
1743371069251,17:44:29.251,-1,-1,1173.62637362637,1.27627927627928,32.8907279055566
1743371069270,17:44:29.270,-1,-1,1175.09157509158,1.27627927627928,32.8907279055566
1743371069290,17:44:29.290,-1,-1,1162.63736263736,1.27672327672328,32.8907279055566
1743371069309,17:44:29.309,-1,-1,1165.56776556777,1.27627927627928,32.8907279055566
1743371069329,17:44:29.329,-1,-1,1156.77655677656,1.27627927627928,32.8907279055566
1743371069348,17:44:29.348,-1,-1,1156.04395604396,1.27627927627928,32.8907279055566
1743371069368,17:44:29.368,-1,-1,1154.57875457875,1.27627927627928,32.8907279055566
1743371069387,17:44:29.387,-1,-1,1153.11355311355,1.27627927627928,32.8907279055566
1743371069407,17:44:29.407,-1,-1,1172.89377289377,1.27627927627928,32.8907279055566
1743371069426,17:44:29.426,-1,-1,1225.64102564103,1.27627927627928,32.8907279055566
1743371069446,17:44:29.446,-1,-1,1313.55311355311,1.27583527583528,32.8907279055566
1743371069465,17:44:29.465,-1,-1,1391.20879120879,1.27583527583528,32.8907279055566
1743371069485,17:44:29.485,-1,-1,1453.47985347985,1.27539127539128,32.8907279055566
1743371069504,17:44:29.504,-1,-1,1512.08791208791,1.27539127539128,32.8907279055566
1743371069524,17:44:29.524,-1,-1,1551.64835164835,1.27494727494727,32.8907279055566
1743371069543,17:44:29.543,-1,-1,1570.69597069597,1.27494727494727,32.8907279055566
1743371069563,17:44:29.563,-1,-1,1568.49816849817,1.27494727494727,32.8907279055566
1743371069582,17:44:29.582,-1,-1,1574.35897435897,1.27494727494727,32.8907279055566
1743371069602,17:44:29.602,-1,-1,1572.16117216117,1.27450327450327,32.8907279055566
1743371069621,17:44:29.621,-1,-1,1570.69597069597,1.27450327450327,32.8907279055566
1743371069641,17:44:29.641,-1,-1,1559.70695970696,1.27405927405927,32.8907279055566
1743371069660,17:44:29.660,-1,-1,1518.68131868132,1.27405927405927,32.8907279055566
1743371069680,17:44:29.680,-1,-1,1459.34065934066,1.27405927405927,32.8907279055566
1743371069699,17:44:29.699,-1,-1,1427.83882783883,1.27405927405927,32.8907279055566
1743371069719,17:44:29.719,-1,-1,1426.37362637363,1.27361527361527,32.8907279055566
1743371069738,17:44:29.738,-1,-1,1422.71062271062,1.27361527361527,32.8907279055566
1743371069758,17:44:29.758,-1,-1,1413.91941391941,1.27361527361527,32.8907279055566
1743371069777,17:44:29.777,-1,-1,1413.91941391941,1.27361527361527,32.8907279055566
1743371069797,17:44:29.797,-1,-1,1412.45421245421,1.27317127317127,32.8907279055566
1743371069816,17:44:29.816,-1,-1,1395.6043956044,1.27317127317127,32.8907279055566
1743371069836,17:44:29.836,-1,-1,1360.43956043956,1.27317127317127,32.8907279055566
1743371069855,17:44:29.855,-1,-1,1331.86813186813,1.27317127317127,32.8907279055566
1743371069875,17:44:29.875,-1,-1,1304.7619047619,1.27317127317127,32.8907279055566
1743371069894,17:44:29.894,-1,-1,1280.58608058608,1.27317127317127,32.8907279055566
1743371069914,17:44:29.914,-1,-1,1265.93406593407,1.27272727272727,32.8907279055566
1743371069933,17:44:29.933,-1,-1,1252.74725274725,1.27228327228327,32.8907279055566
1743371069953,17:44:29.953,-1,-1,1233.69963369963,1.27228327228327,32.8907279055566
1743371069972,17:44:29.972,-1,-1,1203.663003663,1.27228327228327,32.8907279055566
1743371069992,17:44:29.992,-1,-1,1180.95238095238,1.27228327228327,32.8907279055566
1743371070011,17:44:30.011,-1,-1,1172.89377289377,1.27228327228327,32.8907279055566
1743371070031,17:44:30.031,-1,-1,1161.90476190476,1.27228327228327,32.8907279055566
1743371070050,17:44:30.050,-1,-1,1147.98534798535,1.27183927183927,32.8907279055566
1743371070070,17:44:30.070,-1,-1,1129.67032967033,1.27183927183927,32.8907279055566
1743371070089,17:44:30.089,-1,-1,1128.20512820513,1.27183927183927,32.8907279055566
1743371070109,17:44:30.109,-1,-1,1119.41391941392,1.27183927183927,32.8907279055566
1743371070128,17:44:30.128,-1,-1,1106.95970695971,1.27139527139527,32.8907279055566
1743371070148,17:44:30.148,-1,-1,1084.24908424908,1.27139527139527,32.8907279055566
1743371070167,17:44:30.167,-1,-1,1075.45787545788,1.27095127095127,32.8907279055566
1743371070187,17:44:30.187,-1,-1,1081.31868131868,1.27095127095127,32.8907279055566
1743371070206,17:44:30.206,-1,-1,1087.17948717949,1.27095127095127,32.900735817384
1743371070226,17:44:30.226,-1,-1,1076.92307692308,1.27050727050727,32.900735817384
1743371070245,17:44:30.245,-1,-1,1082.78388278388,1.27050727050727,32.900735817384
1743371070265,17:44:30.265,-1,-1,1119.41391941392,1.27006327006327,32.900735817384
1743371070284,17:44:30.284,-1,-1,1175.82417582418,1.27006327006327,32.900735817384
1743371070304,17:44:30.304,-1,-1,1252.74725274725,1.26961926961927,32.900735817384
1743371070323,17:44:30.323,-1,-1,1337.72893772894,1.26961926961927,32.900735817384
1743371070343,17:44:30.343,-1,-1,1391.20879120879,1.26961926961927,32.900735817384
1743371070362,17:44:30.362,-1,-1,1424.90842490842,1.26917526917527,32.900735817384
1743371070382,17:44:30.382,-1,-1,1468.13186813187,1.26917526917527,32.900735817384
1743371070401,17:44:30.401,-1,-1,1499.6336996337,1.26828726828727,32.900735817384
1743371070421,17:44:30.421,-1,-1,1518.68131868132,1.26828726828727,32.900735817384
1743371070440,17:44:30.440,-1,-1,1515.01831501831,1.26784326784327,32.900735817384
1743371070460,17:44:30.460,-1,-1,1497.4358974359,1.26784326784327,32.900735817384
1743371070479,17:44:30.479,-1,-1,1487.91208791209,1.26739926739927,32.900735817384
1743371070499,17:44:30.499,-1,-1,1467.39926739927,1.26651126651127,32.900735817384
1743371070518,17:44:30.518,-1,-1,1432.96703296703,1.26606726606727,32.900735817384
1743371070538,17:44:30.538,-1,-1,1400,1.26517926517927,32.900735817384
1743371070557,17:44:30.557,-1,-1,1363.36996336996,1.26517926517927,32.900735817384
1743371070577,17:44:30.577,-1,-1,1331.86813186813,1.26473526473526,32.900735817384
1743371070596,17:44:30.596,-1,-1,1312.82051282051,1.26473526473526,32.900735817384
1743371070616,17:44:30.616,-1,-1,1301.0989010989,1.26429126429126,32.900735817384
1743371070635,17:44:30.635,-1,-1,1293.77289377289,1.26429126429126,32.900735817384
1743371070655,17:44:30.655,-1,-1,1301.8315018315,1.26473526473526,32.900735817384
1743371070674,17:44:30.674,-1,-1,1299.6336996337,1.26473526473526,32.900735817384
1743371070694,17:44:30.694,-1,-1,1297.4358974359,1.26517926517927,32.900735817384
1743371070713,17:44:30.713,-1,-1,1296.7032967033,1.26517926517927,32.900735817384
1743371070733,17:44:30.733,-1,-1,1275.45787545788,1.26562326562327,32.900735817384
1743371070752,17:44:30.752,-1,-1,1252.74725274725,1.26739926739927,32.900735817384
1743371070772,17:44:30.772,-1,-1,1235.89743589744,1.26917526917527,32.900735817384
1743371070791,17:44:30.791,-1,-1,1215.38461538462,1.27050727050727,32.900735817384
1743371070811,17:44:30.811,-1,-1,1191.94139194139,1.27139527139527,32.900735817384
1743371070830,17:44:30.830,-1,-1,1169.23076923077,1.27228327228327,32.900735817384
1743371070850,17:44:30.850,-1,-1,1148.71794871795,1.27317127317127,32.900735817384
1743371070869,17:44:30.869,-1,-1,1136.26373626374,1.27361527361527,32.900735817384
1743371070889,17:44:30.889,-1,-1,1129.67032967033,1.27539127539128,32.900735817384
1743371070908,17:44:30.908,-1,-1,1120.87912087912,1.27716727716728,32.900735817384
1743371070928,17:44:30.928,-1,-1,1120.87912087912,1.27761127761128,32.900735817384
1743371070947,17:44:30.947,-1,-1,1124.54212454212,1.27849927849928,32.900735817384
1743371070967,17:44:30.967,-1,-1,1124.54212454212,1.27894327894328,32.900735817384
1743371070986,17:44:30.986,-1,-1,1117.21611721612,1.27983127983128,32.900735817384
1743371071006,17:44:31.006,-1,-1,1102.5641025641,1.28116328116328,32.900735817384
1743371071025,17:44:31.025,-1,-1,1081.31868131868,1.28249528249528,32.900735817384
1743371071045,17:44:31.045,-1,-1,1065.93406593407,1.28293928293928,32.900735817384
1743371071064,17:44:31.064,-1,-1,1058.60805860806,1.28382728382728,32.900735817384
1743371071084,17:44:31.084,-1,-1,1047.61904761905,1.28471528471528,32.900735817384
1743371071103,17:44:31.103,-1,-1,1067.39926739927,1.28604728604729,32.900735817384
1743371071123,17:44:31.123,-1,-1,1125.27472527473,1.28737928737929,32.900735817384
1743371071142,17:44:31.142,-1,-1,1211.72161172161,1.28871128871129,32.900735817384
1743371071162,17:44:31.162,-1,-1,1311.35531135531,1.28959928959929,32.900735817384
1743371071181,17:44:31.181,-1,-1,1402.9304029304,1.29093129093129,32.900735817384
1743371071201,17:44:31.201,-1,-1,1475.45787545788,1.29181929181929,32.8907279055566
1743371071220,17:44:31.220,-1,-1,1522.34432234432,1.29270729270729,32.8907279055566
1743371071240,17:44:31.240,-1,-1,1556.04395604396,1.29359529359529,32.8907279055566
1743371071259,17:44:31.259,-1,-1,1582.41758241758,1.29448329448329,32.8907279055566
1743371071279,17:44:31.279,-1,-1,1585.34798534799,1.29492729492729,32.8907279055566
1743371071298,17:44:31.298,-1,-1,1580.95238095238,1.2953712953713,32.8907279055566
1743371071318,17:44:31.318,-1,-1,1588.27838827839,1.2958152958153,32.8907279055566
1743371071337,17:44:31.337,-1,-1,1584.61538461538,1.2962592962593,32.8907279055566
1743371071357,17:44:31.357,-1,-1,1572.89377289377,1.2967032967033,32.8907279055566
1743371071376,17:44:31.376,-1,-1,1534.06593406593,1.2975912975913,32.8907279055566
1743371071396,17:44:31.396,-1,-1,1483.51648351648,1.2980352980353,32.8907279055566
1743371071415,17:44:31.415,-1,-1,1446.15384615385,1.2984792984793,32.8907279055566
1743371071435,17:44:31.435,-1,-1,1422.71062271062,1.2984792984793,32.8907279055566
1743371071454,17:44:31.454,-1,-1,1413.18681318681,1.2989232989233,32.8907279055566
1743371071474,17:44:31.474,-1,-1,1416.84981684982,1.2993672993673,32.8907279055566
1743371071493,17:44:31.493,-1,-1,1416.84981684982,1.2998112998113,32.8907279055566
1743371071513,17:44:31.513,-1,-1,1413.18681318681,1.3002553002553,32.8907279055566
1743371071532,17:44:31.532,-1,-1,1408.05860805861,1.3002553002553,32.8907279055566
1743371071552,17:44:31.552,-1,-1,1394.13919413919,1.3006993006993,32.8907279055566
1743371071571,17:44:31.571,-1,-1,1364.10256410256,1.3011433011433,32.8907279055566
1743371071591,17:44:31.591,-1,-1,1328.20512820513,1.3020313020313,32.8907279055566
1743371071610,17:44:31.610,-1,-1,1303.2967032967,1.3024753024753,32.8907279055566
1743371071630,17:44:31.630,-1,-1,1283.51648351648,1.3029193029193,32.8907279055566
1743371071649,17:44:31.649,-1,-1,1272.52747252747,1.3029193029193,32.8907279055566
1743371071669,17:44:31.669,-1,-1,1258.60805860806,1.3038073038073,32.8907279055566
1743371071688,17:44:31.688,-1,-1,1249.08424908425,1.3042513042513,32.8907279055566
1743371071708,17:44:31.708,-1,-1,1231.50183150183,1.30513930513931,32.8907279055566
1743371071727,17:44:31.727,-1,-1,1213.91941391941,1.30602730602731,32.8907279055566
1743371071747,17:44:31.747,-1,-1,1204.3956043956,1.30602730602731,32.8907279055566
1743371071766,17:44:31.766,-1,-1,1201.4652014652,1.30647130647131,32.8907279055566
1743371071786,17:44:31.786,-1,-1,1194.13919413919,1.30691530691531,32.8907279055566
1743371071805,17:44:31.805,68,-1,1188.27838827839,1.30735930735931,32.8907279055566
1743371071825,17:44:31.825,68,-1,1177.28937728938,1.30824730824731,32.8907279055566
1743371071844,17:44:31.844,68,-1,1175.82417582418,1.30957930957931,32.8907279055566
1743371071864,17:44:31.864,68,-1,1171.42857142857,1.31002331002331,32.8907279055566
1743371071883,17:44:31.883,68,-1,1178.02197802198,1.31046731046731,32.8907279055566
1743371071903,17:44:31.903,68,-1,1218.31501831502,1.31179931179931,32.8907279055566
1743371071922,17:44:31.922,68,-1,1307.69230769231,1.31179931179931,32.8907279055566
1743371071942,17:44:31.942,68,-1,1421.97802197802,1.31268731268731,32.8907279055566
1743371071961,17:44:31.961,68,-1,1523.07692307692,1.31401931401931,32.8907279055566
1743371071981,17:44:31.981,68,-1,1614.65201465201,1.31490731490731,32.8907279055566
1743371072000,17:44:32.000,68,-1,1684.98168498168,1.31579531579532,32.8907279055566
1743371072020,17:44:32.020,68,-1,1732.60073260073,1.31712731712732,32.8907279055566
1743371072039,17:44:32.039,68,-1,1750.18315018315,1.31845931845932,32.8907279055566
1743371072059,17:44:32.059,68,-1,1741.39194139194,1.31801531801532,32.8907279055566
1743371072078,17:44:32.078,68,-1,1740.65934065934,1.31845931845932,32.8907279055566
1743371072098,17:44:32.098,68,-1,1748.71794871795,1.31890331890332,32.8907279055566
1743371072117,17:44:32.117,68,-1,1748.71794871795,1.31890331890332,32.8907279055566
1743371072137,17:44:32.137,68,-1,1734.79853479853,1.31845931845932,32.8907279055566
1743371072156,17:44:32.156,68,-1,1696.7032967033,1.31934731934732,32.8907279055566
1743371072176,17:44:32.176,68,-1,1642.49084249084,1.32023532023532,32.8907279055566
1743371072195,17:44:32.195,68,-1,1589.74358974359,1.32156732156732,32.8957318643807
1743371072215,17:44:32.215,68,-1,1564.83516483516,1.32201132201132,32.8957318643807
1743371072234,17:44:32.234,68,-1,1547.25274725275,1.32245532245532,32.8957318643807
1743371072254,17:44:32.254,68,-1,1520.87912087912,1.32289932289932,32.8957318643807
1743371072273,17:44:32.273,68,-1,1501.8315018315,1.32289932289932,32.8957318643807
1743371072293,17:44:32.293,68,-1,1488.64468864469,1.32156732156732,32.8957318643807
1743371072312,17:44:32.312,68,-1,1485.71428571429,1.32112332112332,32.8957318643807
1743371072332,17:44:32.332,68,-1,1473.99267399267,1.32201132201132,32.8957318643807
1743371072351,17:44:32.351,68,-1,1457.14285714286,1.32289932289932,32.8957318643807
1743371072371,17:44:32.371,68,-1,1433.69963369963,1.32378732378732,32.8957318643807
1743371072390,17:44:32.390,68,-1,1433.69963369963,1.32378732378732,32.8957318643807
1743371072410,17:44:32.410,68,-1,1363.36996336996,1.32645132645133,32.8957318643807
1743371072429,17:44:32.429,68,-1,1339.19413919414,1.32778332778333,32.8957318643807
1743371072449,17:44:32.449,68,-1,1307.69230769231,1.32911532911533,32.8957318643807
1743371072468,17:44:32.468,68,-1,1291.57509157509,1.33000333000333,32.8957318643807
1743371072488,17:44:32.488,68,-1,1277.65567765568,1.33133533133533,32.8957318643807
1743371072507,17:44:32.507,68,-1,1257.14285714286,1.33222333222333,32.8957318643807
1743371072527,17:44:32.527,68,-1,1244.68864468864,1.33399933399933,32.8957318643807
1743371072546,17:44:32.546,68,-1,1229.30402930403,1.33488733488733,32.8957318643807
1743371072566,17:44:32.566,68,-1,1221.24542124542,1.33577533577534,32.8957318643807
1743371072585,17:44:32.585,68,-1,1222.71062271062,1.33666333666334,32.8957318643807
1743371072605,17:44:32.605,68,-1,1221.24542124542,1.33799533799534,32.8957318643807
1743371072624,17:44:32.624,68,-1,1208.79120879121,1.33932733932734,32.8957318643807
1743371072644,17:44:32.644,73,-1,1186.81318681319,1.34065934065934,32.8957318643807
1743371072663,17:44:32.663,73,-1,1168.49816849817,1.34154734154734,32.8957318643807
1743371072683,17:44:32.683,73,-1,1169.96336996337,1.34243534243534,32.8957318643807
1743371072702,17:44:32.702,73,-1,1189.01098901099,1.34376734376734,32.8957318643807
1743371072722,17:44:32.722,73,-1,1250.54945054945,1.34509934509935,32.8957318643807
1743371072741,17:44:32.741,73,-1,1339.19413919414,1.34598734598735,32.8957318643807
1743371072761,17:44:32.761,73,-1,1444.68864468864,1.34687534687535,32.8957318643807
1743371072780,17:44:32.780,73,-1,1569.23076923077,1.34820734820735,32.8957318643807
1743371072800,17:44:32.800,73,-1,1679.85347985348,1.34909534909535,32.8957318643807
1743371072819,17:44:32.819,73,-1,1743.58974358974,1.34998334998335,32.8957318643807
1743371072839,17:44:32.839,73,-1,1783.88278388278,1.35175935175935,32.8957318643807
1743371072858,17:44:32.858,73,-1,1811.72161172161,1.35309135309135,32.8957318643807
1743371072878,17:44:32.878,73,-1,1823.44322344322,1.35442335442335,32.8957318643807
1743371072897,17:44:32.897,73,-1,1821.97802197802,1.35575535575536,32.8957318643807
1743371072917,17:44:32.917,73,-1,1820.51282051282,1.35619935619936,32.8957318643807
1743371072936,17:44:32.936,73,-1,1797.0695970696,1.35575535575536,32.8957318643807
1743371072956,17:44:32.956,73,-1,1747.25274725275,1.35619935619936,32.8957318643807
1743371072975,17:44:32.975,73,-1,1679.12087912088,1.35708735708736,32.8957318643807
1743371072995,17:44:32.995,73,-1,1624.17582417582,1.35797535797536,32.8957318643807
1743371073014,17:44:33.014,73,-1,1583.15018315018,1.35841935841936,32.8957318643807
1743371073034,17:44:33.034,73,-1,1558.97435897436,1.35930735930736,32.8957318643807
1743371073053,17:44:33.053,73,-1,1540.65934065934,1.36019536019536,32.8957318643807
1743371073073,17:44:33.073,73,-1,1515.01831501831,1.36152736152736,32.8957318643807
1743371073092,17:44:33.092,73,-1,1484.24908424908,1.36241536241536,32.8957318643807
1743371073112,17:44:33.112,73,-1,1464.46886446886,1.36330336330336,32.8957318643807
1743371073131,17:44:33.131,73,-1,1443.95604395604,1.36463536463536,32.8957318643807
1743371073151,17:44:33.151,73,-1,1427.10622710623,1.36552336552337,32.8957318643807
1743371073170,17:44:33.170,73,-1,1410.25641025641,1.36507936507937,32.8957318643807
1743371073190,17:44:33.190,73,-1,1393.40659340659,1.36596736596737,32.900735817384
1743371073209,17:44:33.209,73,-1,1387.54578754579,1.36729936729937,32.900735817384
1743371073229,17:44:33.229,73,-1,1369.96336996337,1.36818736818737,32.900735817384
1743371073248,17:44:33.248,73,-1,1354.57875457875,1.36951936951937,32.900735817384
1743371073268,17:44:33.268,73,-1,1330.40293040293,1.37040737040737,32.900735817384
1743371073287,17:44:33.287,73,-1,1296.7032967033,1.37129537129537,32.900735817384
1743371073307,17:44:33.307,73,-1,1271.06227106227,1.37218337218337,32.900735817384
1743371073326,17:44:33.326,73,-1,1241.75824175824,1.37351537351537,32.900735817384
1743371073346,17:44:33.346,73,-1,1217.58241758242,1.37484737484737,32.900735817384
1743371073365,17:44:33.365,73,-1,1188.27838827839,1.37529137529138,32.900735817384
1743371073385,17:44:33.385,73,-1,1168.49816849817,1.37617937617938,32.900735817384
1743371073404,17:44:33.404,73,-1,1171.42857142857,1.37706737706738,32.900735817384
1743371073424,17:44:33.424,73,-1,1194.87179487179,1.37795537795538,32.900735817384
1743371073443,17:44:33.443,73,-1,1209.52380952381,1.37884337884338,32.900735817384
1743371073463,17:44:33.463,73,-1,1205.86080586081,1.37973137973138,32.900735817384
1743371073482,17:44:33.482,72,-1,1194.13919413919,1.38017538017538,32.900735817384
1743371073502,17:44:33.502,72,-1,1167.76556776557,1.38150738150738,32.900735817384
1743371073521,17:44:33.521,72,-1,1141.39194139194,1.38239538239538,32.900735817384
1743371073541,17:44:33.541,72,-1,1121.61172161172,1.38328338328338,32.900735817384
1743371073560,17:44:33.560,72,-1,1112.08791208791,1.38461538461538,32.900735817384
1743371073580,17:44:33.580,72,-1,1111.35531135531,1.38505938505939,32.900735817384
1743371073599,17:44:33.599,72,-1,1159.70695970696,1.38639138639139,32.900735817384
1743371073619,17:44:33.619,72,-1,1255.67765567766,1.38683538683539,32.900735817384
1743371073638,17:44:33.638,72,-1,1385.34798534799,1.38816738816739,32.900735817384
1743371073658,17:44:33.658,72,-1,1497.4358974359,1.38905538905539,32.900735817384
1743371073677,17:44:33.677,72,-1,1597.8021978022,1.39038739038739,32.900735817384
1743371073697,17:44:33.697,72,-1,1681.31868131868,1.39127539127539,32.900735817384
1743371073716,17:44:33.716,72,-1,1740.65934065934,1.39260739260739,32.900735817384
1743371073736,17:44:33.736,72,-1,1759.70695970696,1.39349539349539,32.900735817384
1743371073755,17:44:33.755,72,-1,1752.38095238095,1.39482739482739,32.900735817384
1743371073775,17:44:33.775,72,-1,1728.93772893773,1.3957153957154,32.900735817384
1743371073794,17:44:33.794,72,-1,1712.82051282051,1.3970473970474,32.900735817384
1743371073814,17:44:33.814,72,-1,1690.84249084249,1.3983793983794,32.900735817384
1743371073833,17:44:33.833,72,-1,1657.14285714286,1.3992673992674,32.900735817384
1743371073853,17:44:33.853,72,-1,1628.57142857143,1.4001554001554,32.900735817384
1743371073872,17:44:33.872,72,-1,1596.336996337,1.4010434010434,32.900735817384
1743371073892,17:44:33.892,72,-1,1562.63736263736,1.4023754023754,32.900735817384
1743371073911,17:44:33.911,72,-1,1520.87912087912,1.4037074037074,32.900735817384
1743371073931,17:44:33.931,72,-1,1482.05128205128,1.4045954045954,32.900735817384
1743371073950,17:44:33.950,72,-1,1465.93406593407,1.40592740592741,32.900735817384
1743371073970,17:44:33.970,72,-1,1459.34065934066,1.40681540681541,32.900735817384
1743371073989,17:44:33.989,72,-1,1450.54945054945,1.40770340770341,32.900735817384
1743371074009,17:44:34.009,72,-1,1440.29304029304,1.40859140859141,32.900735817384
1743371074028,17:44:34.028,72,-1,1419.78021978022,1.40947940947941,32.900735817384
1743371074048,17:44:34.048,72,-1,1391.20879120879,1.40992340992341,32.900735817384
1743371074067,17:44:34.067,72,-1,1361.17216117216,1.41036741036741,32.900735817384
1743371074087,17:44:34.087,72,-1,1320.87912087912,1.41081141081141,32.900735817384
1743371074106,17:44:34.106,72,-1,1293.04029304029,1.41169941169941,32.900735817384
1743371074126,17:44:34.126,72,-1,1274.72527472527,1.41303141303141,32.900735817384
1743371074145,17:44:34.145,72,-1,1250.54945054945,1.41347541347541,32.900735817384
1743371074165,17:44:34.165,72,-1,1221.24542124542,1.41391941391941,32.900735817384
1743371074184,17:44:34.184,72,-1,1192.67399267399,1.41436341436341,32.9057397645665
1743371074204,17:44:34.204,72,-1,1180.95238095238,1.41480741480741,32.9057397645665
1743371074223,17:44:34.223,72,-1,1180.21978021978,1.41525141525142,32.9057397645665
1743371074243,17:44:34.243,72,-1,1174.35897435897,1.41569541569542,32.9057397645665
1743371074262,17:44:34.262,72,-1,1158.24175824176,1.41613941613942,32.9057397645665
1743371074282,17:44:34.282,72,-1,1150.18315018315,1.41658341658342,32.9057397645665
1743371074301,17:44:34.301,72,-1,1140.65934065934,1.41658341658342,32.9057397645665
1743371074321,17:44:34.321,72,-1,1134.06593406593,1.41702741702742,32.9057397645665
1743371074340,17:44:34.340,72,-1,1143.58974358974,1.41747141747142,32.9057397645665
1743371074360,17:44:34.360,72,-1,1147.98534798535,1.41835941835942,32.9057397645665
1743371074379,17:44:34.379,72,-1,1142.85714285714,1.41880341880342,32.9057397645665
1743371074399,17:44:34.399,72,-1,1128.93772893773,1.41924741924742,32.9057397645665
1743371074418,17:44:34.418,72,-1,1106.22710622711,1.41924741924742,32.9057397645665
1743371074438,17:44:34.438,72,-1,1090.84249084249,1.41969141969142,32.9057397645665
1743371074457,17:44:34.457,72,-1,1090.84249084249,1.42013542013542,32.9057397645665
1743371074477,17:44:34.477,72,-1,1112.08791208791,1.42057942057942,32.9057397645665
1743371074496,17:44:34.496,72,-1,1146.52014652015,1.42102342102342,32.9057397645665
1743371074516,17:44:34.516,72,-1,1214.65201465201,1.42146742146742,32.9057397645665
1743371074535,17:44:34.535,72,-1,1308.42490842491,1.42146742146742,32.9057397645665
1743371074555,17:44:34.555,72,-1,1408.79120879121,1.42191142191142,32.9057397645665
1743371074574,17:44:34.574,72,-1,1501.8315018315,1.42235542235542,32.9057397645665
1743371074594,17:44:34.594,72,-1,1563.36996336996,1.42324342324342,32.9057397645665
1743371074613,17:44:34.613,72,-1,1606.59340659341,1.42324342324342,32.9057397645665
1743371074633,17:44:34.633,72,-1,1638.09523809524,1.42368742368742,32.9057397645665
1743371074652,17:44:34.652,72,-1,1654.94505494505,1.42413142413142,32.9057397645665
1743371074672,17:44:34.672,72,-1,1628.57142857143,1.42413142413142,32.9057397645665
1743371074691,17:44:34.691,72,-1,1600.7326007326,1.42457542457542,32.9057397645665
1743371074711,17:44:34.711,72,-1,1576.55677655678,1.42457542457542,32.9057397645665
1743371074730,17:44:34.730,72,-1,1559.70695970696,1.42501942501943,32.9057397645665
1743371074750,17:44:34.750,72,-1,1540.65934065934,1.42501942501943,32.9057397645665
1743371074769,17:44:34.769,72,-1,1506.22710622711,1.42501942501943,32.9057397645665
1743371074789,17:44:34.789,72,-1,1454.94505494505,1.42546342546343,32.9057397645665
1743371074808,17:44:34.808,72,-1,1398.5347985348,1.42546342546343,32.9057397645665
1743371074828,17:44:34.828,72,-1,1354.57875457875,1.42590742590743,32.9057397645665
1743371074847,17:44:34.847,72,-1,1333.33333333333,1.42590742590743,32.9057397645665
1743371074867,17:44:34.867,72,-1,1333.33333333333,1.42590742590743,32.9057397645665
1743371074886,17:44:34.886,72,-1,1333.33333333333,1.42590742590743,32.9057397645665
1743371074906,17:44:34.906,72,-1,1339.92673992674,1.42590742590743,32.9057397645665
1743371074925,17:44:34.925,72,-1,1337.72893772894,1.42635142635143,32.9057397645665
1743371074945,17:44:34.945,72,-1,1303.2967032967,1.42679542679543,32.9057397645665
1743371074964,17:44:34.964,72,-1,1279.85347985348,1.42723942723943,32.9057397645665
1743371074984,17:44:34.984,72,-1,1268.13186813187,1.42723942723943,32.9057397645665
1743371075003,17:44:35.003,72,-1,1242.49084249084,1.42723942723943,32.9057397645665
1743371075023,17:44:35.023,72,-1,1213.91941391941,1.42723942723943,32.9057397645665
1743371075042,17:44:35.042,72,-1,1195.6043956044,1.42768342768343,32.9057397645665
1743371075062,17:44:35.062,72,-1,1197.0695970696,1.42812742812743,32.9057397645665
1743371075081,17:44:35.081,72,-1,1195.6043956044,1.42812742812743,32.9057397645665
1743371075101,17:44:35.101,72,-1,1179.48717948718,1.42812742812743,32.9057397645665
1743371075120,17:44:35.120,72,-1,1151.64835164835,1.42812742812743,32.9057397645665
1743371075140,17:44:35.140,72,-1,1131.13553113553,1.42857142857143,32.9057397645665
1743371075159,17:44:35.159,72,-1,1116.48351648352,1.42857142857143,32.9057397645665
1743371075179,17:44:35.179,72,-1,1100.3663003663,1.42857142857143,32.9107437059283
1743371075198,17:44:35.198,68,-1,1086.44688644689,1.42901542901543,32.9107437059283
1743371075218,17:44:35.218,68,-1,1082.05128205128,1.42857142857143,32.9107437059283
1743371075237,17:44:35.237,68,-1,1069.59706959707,1.42857142857143,32.9107437059283
1743371075257,17:44:35.257,68,-1,1056.41025641026,1.42857142857143,32.9107437059283
1743371075276,17:44:35.276,68,-1,1050.54945054945,1.42901542901543,32.9107437059283
1743371075296,17:44:35.296,68,-1,1050.54945054945,1.42901542901543,32.9107437059283
1743371075315,17:44:35.315,68,-1,1052.74725274725,1.42901542901543,32.9107437059283
1743371075335,17:44:35.335,68,-1,1050.54945054945,1.42901542901543,32.9107437059283
1743371075354,17:44:35.354,68,-1,1050.54945054945,1.42945942945943,32.9107437059283
1743371075374,17:44:35.374,68,-1,1066.66666666667,1.42945942945943,32.9107437059283
1743371075393,17:44:35.393,68,-1,1100.3663003663,1.42990342990343,32.9107437059283
1743371075413,17:44:35.413,68,-1,1171.42857142857,1.43034743034743,32.9107437059283
1743371075432,17:44:35.432,68,-1,1263.00366300366,1.43034743034743,32.9107437059283
1743371075452,17:44:35.452,68,-1,1347.98534798535,1.43079143079143,32.9107437059283
1743371075471,17:44:35.471,68,-1,1416.84981684982,1.43079143079143,32.9107437059283
1743371075491,17:44:35.491,68,-1,1471.06227106227,1.43123543123543,32.9107437059283
1743371075510,17:44:35.510,68,-1,1509.15750915751,1.43123543123543,32.9107437059283
1743371075530,17:44:35.530,68,-1,1535.53113553114,1.43123543123543,32.9107437059283
1743371075549,17:44:35.549,68,-1,1545.78754578755,1.43123543123543,32.9107437059283
1743371075569,17:44:35.569,68,-1,1532.60073260073,1.43123543123543,32.9107437059283
1743371075588,17:44:35.588,68,-1,1515.01831501831,1.43123543123543,32.9107437059283
1743371075608,17:44:35.608,68,-1,1502.5641025641,1.43123543123543,32.9107437059283
1743371075627,17:44:35.627,68,-1,1472.52747252747,1.43123543123543,32.9107437059283
1743371075647,17:44:35.647,68,-1,1428.57142857143,1.43123543123543,32.9107437059283
1743371075666,17:44:35.666,68,-1,1387.54578754579,1.43123543123543,32.9107437059283
1743371075686,17:44:35.686,68,-1,1364.10256410256,1.43123543123543,32.9107437059283
1743371075705,17:44:35.705,68,-1,1349.45054945055,1.43123543123543,32.9107437059283
1743371075725,17:44:35.725,68,-1,1336.99633699634,1.43123543123543,32.9107437059283
1743371075744,17:44:35.744,68,-1,1321.61172161172,1.43123543123543,32.9107437059283
1743371075764,17:44:35.764,68,-1,1304.7619047619,1.43123543123543,32.9107437059283
1743371075783,17:44:35.783,68,-1,1294.50549450549,1.43123543123543,32.9107437059283
1743371075803,17:44:35.803,68,-1,1300.3663003663,1.43123543123543,32.9107437059283
1743371075822,17:44:35.822,68,-1,1311.35531135531,1.43123543123543,32.9107437059283
1743371075842,17:44:35.842,68,-1,1309.15750915751,1.43123543123543,32.9107437059283
1743371075861,17:44:35.861,68,-1,1282.78388278388,1.43123543123543,32.9107437059283
1743371075881,17:44:35.881,68,-1,1255.67765567766,1.43167943167943,32.9107437059283
1743371075900,17:44:35.900,68,-1,1232.23443223443,1.43123543123543,32.9107437059283
1743371075920,17:44:35.920,68,-1,1217.58241758242,1.43167943167943,32.9107437059283
1743371075939,17:44:35.939,68,-1,1191.20879120879,1.43167943167943,32.9107437059283
1743371075959,17:44:35.959,68,-1,1160.43956043956,1.43167943167943,32.9107437059283
1743371075978,17:44:35.978,72,-1,1150.18315018315,1.43167943167943,32.9107437059283
1743371075998,17:44:35.998,72,-1,1159.70695970696,1.43167943167943,32.9107437059283
1743371076017,17:44:36.017,72,-1,1161.17216117216,1.43123543123543,32.9107437059283
1743371076037,17:44:36.037,72,-1,1151.64835164835,1.43123543123543,32.9107437059283
1743371076056,17:44:36.056,72,-1,1144.32234432234,1.43079143079143,32.9107437059283
1743371076076,17:44:36.076,72,-1,1144.32234432234,1.43123543123543,32.9107437059283
1743371076095,17:44:36.095,72,-1,1138.46153846154,1.43079143079143,32.9107437059283
1743371076115,17:44:36.115,72,-1,1134.79853479853,1.43079143079143,32.9107437059283
1743371076134,17:44:36.134,72,-1,1124.54212454212,1.43079143079143,32.9107437059283
1743371076154,17:44:36.154,72,-1,1103.2967032967,1.43034743034743,32.9107437059283
1743371076173,17:44:36.173,72,-1,1073.99267399267,1.43034743034743,32.9057397645665
1743371076193,17:44:36.193,72,-1,1044.68864468864,1.43034743034743,32.9057397645665
1743371076212,17:44:36.212,72,-1,1041.75824175824,1.43034743034743,32.9057397645665
1743371076232,17:44:36.232,72,-1,1109.15750915751,1.43034743034743,32.9057397645665
1743371076251,17:44:36.251,72,-1,1201.4652014652,1.43034743034743,32.9057397645665
1743371076271,17:44:36.271,72,-1,1306.22710622711,1.42990342990343,32.9057397645665
1743371076290,17:44:36.290,72,-1,1399.2673992674,1.42990342990343,32.9057397645665
1743371076310,17:44:36.310,72,-1,1478.38827838828,1.43034743034743,32.9057397645665
1743371076329,17:44:36.329,72,-1,1520.14652014652,1.42990342990343,32.9057397645665
1743371076349,17:44:36.349,72,-1,1552.38095238095,1.42990342990343,32.9057397645665
1743371076368,17:44:36.368,72,-1,1579.48717948718,1.42990342990343,32.9057397645665
1743371076388,17:44:36.388,72,-1,1584.61538461538,1.42945942945943,32.9057397645665
1743371076407,17:44:36.407,72,-1,1568.49816849817,1.42945942945943,32.9057397645665
1743371076427,17:44:36.427,72,-1,1549.45054945055,1.42945942945943,32.9057397645665
1743371076446,17:44:36.446,72,-1,1525.27472527473,1.42945942945943,32.9057397645665
1743371076466,17:44:36.466,72,-1,1508.42490842491,1.42901542901543,32.9057397645665
1743371076485,17:44:36.485,72,-1,1485.71428571429,1.42901542901543,32.9057397645665
1743371076505,17:44:36.505,72,-1,1459.34065934066,1.42857142857143,32.9057397645665
1743371076524,17:44:36.524,72,-1,1427.83882783883,1.42857142857143,32.9057397645665
1743371076544,17:44:36.544,72,-1,1396.336996337,1.42901542901543,32.9057397645665
1743371076563,17:44:36.563,72,-1,1371.42857142857,1.42901542901543,32.9057397645665
1743371076583,17:44:36.583,72,-1,1369.23076923077,1.42857142857143,32.9057397645665
1743371076602,17:44:36.602,72,-1,1364.83516483516,1.42812742812743,32.9057397645665
1743371076622,17:44:36.622,72,-1,1355.31135531136,1.42812742812743,32.9057397645665
1743371076641,17:44:36.641,72,-1,1356.04395604396,1.42812742812743,32.9057397645665
1743371076661,17:44:36.661,72,-1,1348.71794871795,1.42812742812743,32.9057397645665
1743371076680,17:44:36.680,72,-1,1332.60073260073,1.42768342768343,32.9057397645665
1743371076700,17:44:36.700,72,-1,1318.68131868132,1.42768342768343,32.9057397645665
1743371076719,17:44:36.719,72,-1,1300.3663003663,1.42768342768343,32.9057397645665
1743371076739,17:44:36.739,72,-1,1267.39926739927,1.42723942723943,32.9057397645665
1743371076758,17:44:36.758,72,-1,1241.75824175824,1.42723942723943,32.9057397645665
1743371076778,17:44:36.778,72,-1,1219.04761904762,1.42723942723943,32.9057397645665
1743371076797,17:44:36.797,77,-1,1198.5347985348,1.42723942723943,32.9057397645665
1743371076817,17:44:36.817,77,-1,1189.01098901099,1.42723942723943,32.9057397645665
1743371076836,17:44:36.836,77,-1,1177.28937728938,1.42635142635143,32.9057397645665
1743371076856,17:44:36.856,77,-1,1173.62637362637,1.42635142635143,32.9057397645665
1743371076875,17:44:36.875,77,-1,1180.95238095238,1.42635142635143,32.9057397645665
1743371076895,17:44:36.895,77,-1,1163.36996336996,1.42635142635143,32.9057397645665
1743371076914,17:44:36.914,77,-1,1137.72893772894,1.42590742590743,32.9057397645665
1743371076934,17:44:36.934,77,-1,1120.87912087912,1.42590742590743,32.9057397645665
1743371076953,17:44:36.953,77,-1,1108.42490842491,1.42546342546343,32.9057397645665
1743371076973,17:44:36.973,77,-1,1103.2967032967,1.42501942501943,32.9057397645665
1743371076992,17:44:36.992,77,-1,1106.22710622711,1.42501942501943,32.9057397645665
1743371077012,17:44:37.012,77,-1,1121.61172161172,1.42501942501943,32.9057397645665
1743371077031,17:44:37.031,77,-1,1153.11355311355,1.42457542457542,32.9057397645665
1743371077051,17:44:37.051,77,-1,1197.8021978022,1.42457542457542,32.9057397645665
1743371077070,17:44:37.070,77,-1,1272.52747252747,1.42413142413142,32.9057397645665
1743371077090,17:44:37.090,77,-1,1370.69597069597,1.42413142413142,32.9057397645665
1743371077109,17:44:37.109,77,-1,1465.93406593407,1.42368742368742,32.9057397645665
1743371077129,17:44:37.129,77,-1,1550.91575091575,1.42368742368742,32.9057397645665
1743371077148,17:44:37.148,77,-1,1610.25641025641,1.42368742368742,32.9057397645665
1743371077168,17:44:37.168,77,-1,1649.08424908425,1.42324342324342,32.9107437059283
1743371077187,17:44:37.187,77,-1,1678.38827838828,1.42324342324342,32.9107437059283
1743371077207,17:44:37.207,77,-1,1692.30769230769,1.42279942279942,32.9107437059283
1743371077226,17:44:37.226,77,-1,1704.0293040293,1.42279942279942,32.9107437059283
1743371077246,17:44:37.246,77,-1,1702.5641025641,1.42235542235542,32.9107437059283
1743371077265,17:44:37.265,77,-1,1685.71428571429,1.42235542235542,32.9107437059283
1743371077285,17:44:37.285,77,-1,1656.41025641026,1.42191142191142,32.9107437059283
1743371077304,17:44:37.304,77,-1,1613.18681318681,1.42146742146742,32.9107437059283
1743371077324,17:44:37.324,77,-1,1558.24175824176,1.42146742146742,32.9107437059283
1743371077343,17:44:37.343,77,-1,1510.62271062271,1.42146742146742,32.9107437059283
1743371077363,17:44:37.363,77,-1,1482.78388278388,1.42102342102342,32.9107437059283
1743371077382,17:44:37.382,77,-1,1468.86446886447,1.42102342102342,32.9107437059283
1743371077402,17:44:37.402,77,-1,1454.94505494505,1.42057942057942,32.9107437059283
1743371077421,17:44:37.421,77,-1,1448.35164835165,1.42013542013542,32.9107437059283
1743371077441,17:44:37.441,77,-1,1446.15384615385,1.42057942057942,32.9107437059283
1743371077460,17:44:37.460,77,-1,1444.68864468864,1.42013542013542,32.9107437059283
1743371077480,17:44:37.480,77,-1,1439.56043956044,1.41969141969142,32.9107437059283
1743371077499,17:44:37.499,77,-1,1414.65201465201,1.41969141969142,32.9107437059283
1743371077519,17:44:37.519,77,-1,1379.48717948718,1.41924741924742,32.9107437059283
1743371077538,17:44:37.538,77,-1,1350.91575091575,1.41880341880342,32.9107437059283
1743371077558,17:44:37.558,77,-1,1316.48351648352,1.41924741924742,32.9107437059283
1743371077577,17:44:37.577,77,-1,1280.58608058608,1.41924741924742,32.9107437059283
1743371077597,17:44:37.597,77,-1,1273.26007326007,1.41880341880342,32.9107437059283
1743371077616,17:44:37.616,77,-1,1271.79487179487,1.41835941835942,32.9107437059283
1743371077636,17:44:37.636,77,-1,1264.46886446886,1.41835941835942,32.9107437059283
1743371077655,17:44:37.655,77,-1,1251.28205128205,1.41791541791542,32.9107437059283
1743371077675,17:44:37.675,73,-1,1235.89743589744,1.41791541791542,32.9107437059283
1743371077694,17:44:37.694,73,-1,1223.44322344322,1.41791541791542,32.9107437059283
1743371077714,17:44:37.714,73,-1,1220.51282051282,1.41791541791542,32.9107437059283
1743371077733,17:44:37.733,73,-1,1211.72161172161,1.41747141747142,32.9107437059283
1743371077753,17:44:37.753,73,-1,1191.20879120879,1.41747141747142,32.9107437059283
1743371077772,17:44:37.772,73,-1,1178.75457875458,1.41702741702742,32.9107437059283
1743371077792,17:44:37.792,73,-1,1178.02197802198,1.41702741702742,32.9107437059283
1743371077811,17:44:37.811,73,-1,1171.42857142857,1.41702741702742,32.9107437059283
1743371077831,17:44:37.831,73,-1,1161.17216117216,1.41702741702742,32.9107437059283
1743371077850,17:44:37.850,73,-1,1156.77655677656,1.41658341658342,32.9107437059283
1743371077870,17:44:37.870,73,-1,1157.50915750916,1.41613941613942,32.9107437059283
1743371077889,17:44:37.889,73,-1,1159.70695970696,1.41613941613942,32.9107437059283
1743371077909,17:44:37.909,73,-1,1175.09157509158,1.41613941613942,32.9107437059283
1743371077928,17:44:37.928,73,-1,1220.51282051282,1.41569541569542,32.9107437059283
1743371077948,17:44:37.948,73,-1,1300.3663003663,1.41569541569542,32.9107437059283
1743371077967,17:44:37.967,73,-1,1413.91941391941,1.41569541569542,32.9107437059283
1743371077987,17:44:37.987,73,-1,1542.12454212454,1.41525141525142,32.9107437059283
1743371078006,17:44:38.006,73,-1,1646.15384615385,1.41525141525142,32.9107437059283
1743371078026,17:44:38.026,73,-1,1721.61172161172,1.41480741480741,32.9107437059283
1743371078045,17:44:38.045,73,-1,1775.09157509157,1.41480741480741,32.9107437059283
1743371078065,17:44:38.065,73,-1,1804.3956043956,1.41480741480741,32.9107437059283
1743371078084,17:44:38.084,73,-1,1813.18681318681,1.41436341436341,32.9107437059283
1743371078104,17:44:38.104,73,-1,1810.25641025641,1.41436341436341,32.9107437059283
1743371078123,17:44:38.123,73,-1,1794.13919413919,1.41436341436341,32.9107437059283
1743371078143,17:44:38.143,73,-1,1772.16117216117,1.41391941391941,32.9107437059283
1743371078162,17:44:38.162,73,-1,1753.11355311355,1.41391941391941,32.9107437059283
1743371078182,17:44:38.182,73,-1,1717.21611721612,1.41391941391941,32.9107437059283
1743371078201,17:44:38.201,73,-1,1649.81684981685,1.41391941391941,32.9107437059283
1743371078221,17:44:38.221,73,-1,1592.67399267399,1.41347541347541,32.9107437059283
1743371078240,17:44:38.240,73,-1,1556.04395604396,1.41303141303141,32.9107437059283
1743371078260,17:44:38.260,73,-1,1528.93772893773,1.41303141303141,32.9107437059283
1743371078279,17:44:38.279,73,-1,1516.48351648352,1.41303141303141,32.9107437059283
1743371078299,17:44:38.299,73,-1,1504.7619047619,1.41258741258741,32.9107437059283
1743371078318,17:44:38.318,73,-1,1489.37728937729,1.41258741258741,32.9107437059283
1743371078338,17:44:38.338,73,-1,1472.52747252747,1.41214341214341,32.9107437059283
1743371078357,17:44:38.357,73,-1,1449.81684981685,1.41214341214341,32.9107437059283
1743371078377,17:44:38.377,73,-1,1421.24542124542,1.41169941169941,32.9107437059283
1743371078396,17:44:38.396,73,-1,1392.67399267399,1.41214341214341,32.9107437059283
1743371078416,17:44:38.416,73,-1,1369.96336996337,1.41169941169941,32.9107437059283
1743371078435,17:44:38.435,73,-1,1345.05494505494,1.41125541125541,32.9107437059283
1743371078455,17:44:38.455,73,-1,1320.14652014652,1.41125541125541,32.9107437059283
1743371078474,17:44:38.474,73,-1,1294.50549450549,1.41125541125541,32.9107437059283
1743371078494,17:44:38.494,73,-1,1272.52747252747,1.41125541125541,32.9107437059283
1743371078513,17:44:38.513,73,-1,1252.74725274725,1.41081141081141,32.9107437059283
1743371078533,17:44:38.533,73,-1,1243.22344322344,1.41081141081141,32.9107437059283
1743371078552,17:44:38.552,73,-1,1233.69963369963,1.41036741036741,32.9107437059283
1743371078572,17:44:38.572,68,-1,1229.30402930403,1.41036741036741,32.9107437059283
1743371078591,17:44:38.591,68,-1,1221.97802197802,1.41036741036741,32.9107437059283
1743371078611,17:44:38.611,68,-1,1213.91941391941,1.41036741036741,32.9107437059283
1743371078630,17:44:38.630,68,-1,1206.59340659341,1.41036741036741,32.9107437059283
1743371078650,17:44:38.650,68,-1,1189.74358974359,1.40992340992341,32.9107437059283
1743371078669,17:44:38.669,68,-1,1165.56776556777,1.40992340992341,32.9107437059283
1743371078689,17:44:38.689,68,-1,1148.71794871795,1.40947940947941,32.9107437059283
1743371078708,17:44:38.708,68,-1,1149.45054945055,1.40947940947941,32.9107437059283
1743371078728,17:44:38.728,68,-1,1149.45054945055,1.40947940947941,32.9107437059283
1743371078747,17:44:38.747,68,-1,1149.45054945055,1.40947940947941,32.9107437059283
1743371078767,17:44:38.767,68,-1,1145.78754578755,1.40947940947941,32.9107437059283
1743371078786,17:44:38.786,68,-1,1148.71794871795,1.40903540903541,32.9107437059283
1743371078806,17:44:38.806,68,-1,1171.42857142857,1.40903540903541,32.9107437059283
1743371078825,17:44:38.825,68,-1,1246.88644688645,1.40903540903541,32.9107437059283
1743371078845,17:44:38.845,68,-1,1372.89377289377,1.40903540903541,32.9107437059283
1743371078864,17:44:38.864,68,-1,1495.9706959707,1.40903540903541,32.9107437059283
1743371078884,17:44:38.884,68,-1,1602.9304029304,1.40903540903541,32.9107437059283
1743371078903,17:44:38.903,68,-1,1696.7032967033,1.40859140859141,32.9107437059283
1743371078923,17:44:38.923,68,-1,1759.70695970696,1.40859140859141,32.9107437059283
1743371078942,17:44:38.942,68,-1,1802.1978021978,1.40814740814741,32.9107437059283
1743371078962,17:44:38.962,68,-1,1812.45421245421,1.40859140859141,32.9107437059283
1743371078981,17:44:38.981,68,-1,1785.34798534799,1.40814740814741,32.9107437059283
1743371079001,17:44:39.001,68,-1,1758.24175824176,1.40814740814741,32.9107437059283
1743371079020,17:44:39.020,68,-1,1730.40293040293,1.40814740814741,32.9107437059283
1743371079040,17:44:39.040,68,-1,1701.8315018315,1.40770340770341,32.9107437059283
1743371079059,17:44:39.059,68,-1,1660.80586080586,1.40770340770341,32.9107437059283
1743371079079,17:44:39.079,68,-1,1602.9304029304,1.40770340770341,32.9107437059283
1743371079098,17:44:39.098,68,-1,1550.18315018315,1.40770340770341,32.9107437059283
1743371079118,17:44:39.118,68,-1,1500.3663003663,1.40770340770341,32.9107437059283
1743371079137,17:44:39.137,68,-1,1466.66666666667,1.40725940725941,32.9107437059283
1743371079157,17:44:39.157,68,-1,1453.47985347985,1.40725940725941,32.9157476414694
1743371079176,17:44:39.176,68,-1,1447.61904761905,1.40725940725941,32.9157476414694
1743371079196,17:44:39.196,68,-1,1445.42124542125,1.40725940725941,32.9157476414694
1743371079215,17:44:39.215,68,-1,1445.42124542125,1.40681540681541,32.9157476414694
1743371079235,17:44:39.235,68,-1,1441.02564102564,1.40681540681541,32.9157476414694
1743371079254,17:44:39.254,68,-1,1427.83882783883,1.40681540681541,32.9157476414694
1743371079274,17:44:39.274,68,-1,1402.9304029304,1.40681540681541,32.9157476414694
1743371079293,17:44:39.293,68,-1,1377.28937728938,1.40681540681541,32.9157476414694
1743371079313,17:44:39.313,68,-1,1348.71794871795,1.40637140637141,32.9157476414694
1743371079333,17:44:39.332,68,-1,1319.41391941392,1.40637140637141,32.9157476414694
1743371079352,17:44:39.352,68,-1,1291.57509157509,1.40637140637141,32.9157476414694
1743371079372,17:44:39.371,68,-1,1266.66666666667,1.40637140637141,32.9157476414694
1743371079391,17:44:39.391,68,-1,1253.47985347985,1.40592740592741,32.9157476414694
1743371079411,17:44:39.410,68,-1,1248.35164835165,1.40592740592741,32.9157476414694
1743371079430,17:44:39.430,68,-1,1238.82783882784,1.40592740592741,32.9157476414694
1743371079450,17:44:39.449,68,-1,1236.63003663004,1.40592740592741,32.9157476414694
1743371079469,17:44:39.469,67,-1,1228.57142857143,1.40592740592741,32.9157476414694
1743371079489,17:44:39.489,67,-1,1216.11721611722,1.40548340548341,32.9157476414694
1743371079508,17:44:39.508,67,-1,1207.32600732601,1.40548340548341,32.9157476414694
1743371079528,17:44:39.528,67,-1,1194.87179487179,1.40548340548341,32.9157476414694
1743371079547,17:44:39.547,67,-1,1178.02197802198,1.40548340548341,32.9157476414694
1743371079567,17:44:39.567,67,-1,1164.83516483516,1.4050394050394,32.9157476414694
1743371079586,17:44:39.586,67,-1,1145.78754578755,1.4050394050394,32.9157476414694
1743371079606,17:44:39.606,67,-1,1165.56776556777,1.4045954045954,32.9157476414694
1743371079625,17:44:39.625,67,-1,1232.23443223443,1.4050394050394,32.9157476414694
1743371079645,17:44:39.645,67,-1,1328.20512820513,1.4050394050394,32.9157476414694
1743371079664,17:44:39.664,67,-1,1455.67765567766,1.4050394050394,32.9157476414694
1743371079684,17:44:39.684,67,-1,1586.08058608059,1.4050394050394,32.9157476414694
1743371079703,17:44:39.703,67,-1,1693.04029304029,1.4045954045954,32.9157476414694
1743371079723,17:44:39.723,67,-1,1773.62637362637,1.4041514041514,32.9157476414694
1743371079742,17:44:39.742,67,-1,1811.72161172161,1.4045954045954,32.9157476414694
1743371079762,17:44:39.762,67,-1,1813.18681318681,1.4045954045954,32.9157476414694
1743371079781,17:44:39.781,67,-1,1807.32600732601,1.4045954045954,32.9157476414694
1743371079801,17:44:39.801,67,-1,1786.81318681319,1.4041514041514,32.9157476414694
1743371079820,17:44:39.820,67,-1,1767.76556776557,1.4041514041514,32.9157476414694
1743371079840,17:44:39.840,67,-1,1749.45054945055,1.4041514041514,32.9157476414694
1743371079859,17:44:39.859,67,-1,1728.93772893773,1.4037074037074,32.9157476414694
1743371079879,17:44:39.879,67,-1,1693.77289377289,1.4037074037074,32.9157476414694
1743371079898,17:44:39.898,67,-1,1635.89743589744,1.4041514041514,32.9157476414694
1743371079918,17:44:39.918,67,-1,1579.48717948718,1.4037074037074,32.9157476414694
1743371079937,17:44:39.937,67,-1,1535.53113553114,1.4037074037074,32.9157476414694
1743371079957,17:44:39.957,67,-1,1488.64468864469,1.4037074037074,32.9157476414694
1743371079976,17:44:39.976,67,-1,1460.80586080586,1.4032634032634,32.9157476414694
1743371079996,17:44:39.996,67,-1,1441.75824175824,1.4032634032634,32.9157476414694
1743371080015,17:44:40.015,67,-1,1431.50183150183,1.4037074037074,32.9157476414694
1743371080035,17:44:40.035,67,-1,1424.90842490842,1.4032634032634,32.9157476414694
1743371080054,17:44:40.054,67,-1,1411.72161172161,1.4032634032634,32.9157476414694
1743371080074,17:44:40.074,67,-1,1391.94139194139,1.4032634032634,32.9157476414694
1743371080093,17:44:40.093,67,-1,1379.48717948718,1.4032634032634,32.9157476414694
1743371080113,17:44:40.113,67,-1,1358.24175824176,1.4032634032634,32.9157476414694
1743371080132,17:44:40.132,67,-1,1326.00732600733,1.4032634032634,32.9157476414694
1743371080152,17:44:40.152,67,-1,1285.71428571429,1.4028194028194,32.9257554950891
1743371080171,17:44:40.171,67,-1,1260.80586080586,1.4028194028194,32.9257554950891
1743371080191,17:44:40.191,67,-1,1265.20146520147,1.4023754023754,32.9257554950891
1743371080210,17:44:40.210,67,-1,1263.00366300366,1.4028194028194,32.9257554950891
1743371080230,17:44:40.230,67,-1,1241.02564102564,1.4028194028194,32.9257554950891
1743371080249,17:44:40.249,67,-1,1225.64102564103,1.4028194028194,32.9257554950891
1743371080269,17:44:40.269,67,-1,1216.11721611722,1.4028194028194,32.9257554950891
1743371080288,17:44:40.288,67,-1,1208.79120879121,1.4028194028194,32.9257554950891
1743371080308,17:44:40.308,67,-1,1198.5347985348,1.4032634032634,32.9257554950891
1743371080327,17:44:40.327,67,-1,1192.67399267399,1.4032634032634,32.9257554950891
1743371080347,17:44:40.347,67,-1,1186.81318681319,1.4032634032634,32.9257554950891
1743371080366,17:44:40.366,67,-1,1184.61538461538,1.4028194028194,32.9257554950891
1743371080386,17:44:40.386,67,-1,1173.62637362637,1.4028194028194,32.9257554950891
1743371080405,17:44:40.405,67,-1,1172.89377289377,1.4023754023754,32.9257554950891
1743371080425,17:44:40.425,67,-1,1194.87179487179,1.4023754023754,32.9257554950891
1743371080444,17:44:40.444,67,-1,1255.67765567766,1.4023754023754,32.9257554950891
1743371080464,17:44:40.464,67,-1,1349.45054945055,1.4028194028194,32.9257554950891
1743371080483,17:44:40.483,67,-1,1478.38827838828,1.4023754023754,32.9257554950891
1743371080503,17:44:40.503,67,-1,1628.57142857143,1.4023754023754,32.9257554950891
1743371080522,17:44:40.522,67,-1,1739.92673992674,1.4023754023754,32.9257554950891
1743371080542,17:44:40.542,67,-1,1804.3956043956,1.4028194028194,32.9257554950891
1743371080561,17:44:40.561,67,-1,1846.15384615385,1.4028194028194,32.9257554950891
1743371080581,17:44:40.581,67,-1,1857.14285714286,1.4032634032634,32.9257554950891
1743371080600,17:44:40.600,67,-1,1845.42124542125,1.4032634032634,32.9257554950891
1743371080620,17:44:40.620,67,-1,1827.10622710623,1.4028194028194,32.9257554950891
1743371080639,17:44:40.639,67,-1,1814.65201465201,1.4028194028194,32.9257554950891
1743371080659,17:44:40.659,67,-1,1805.12820512821,1.4028194028194,32.9257554950891
1743371080678,17:44:40.678,67,-1,1783.15018315018,1.4023754023754,32.9257554950891
1743371080698,17:44:40.698,67,-1,1733.33333333333,1.4028194028194,32.9257554950891
1743371080717,17:44:40.717,67,-1,1669.59706959707,1.4028194028194,32.9257554950891
1743371080737,17:44:40.737,67,-1,1602.1978021978,1.4023754023754,32.9257554950891
1743371080756,17:44:40.756,67,-1,1545.05494505494,1.4023754023754,32.9257554950891
1743371080776,17:44:40.776,67,-1,1515.01831501831,1.4023754023754,32.9257554950891
1743371080795,17:44:40.795,67,-1,1495.9706959707,1.4023754023754,32.9257554950891
1743371080815,17:44:40.815,67,-1,1484.24908424908,1.4023754023754,32.9257554950891
1743371080834,17:44:40.834,67,-1,1483.51648351648,1.4019314019314,32.9257554950891
1743371080854,17:44:40.854,67,-1,1481.31868131868,1.4014874014874,32.9257554950891
1743371080873,17:44:40.873,67,-1,1473.26007326007,1.4014874014874,32.9257554950891
1743371080893,17:44:40.893,67,-1,1471.06227106227,1.4014874014874,32.9257554950891
1743371080912,17:44:40.912,67,-1,1452.01465201465,1.4014874014874,32.9257554950891
1743371080932,17:44:40.932,67,-1,1426.37362637363,1.4010434010434,32.9257554950891
1743371080951,17:44:40.951,67,-1,1393.40659340659,1.4010434010434,32.9257554950891
1743371080971,17:44:40.971,67,-1,1350.91575091575,1.4010434010434,32.9257554950891
1743371080990,17:44:40.990,67,-1,1309.89010989011,1.4005994005994,32.9257554950891
1743371081010,17:44:41.010,67,-1,1276.92307692308,1.4005994005994,32.9257554950891
1743371081029,17:44:41.029,67,-1,1263.73626373626,1.4005994005994,32.9257554950891
1743371081049,17:44:41.049,67,-1,1255.67765567766,1.4005994005994,32.9257554950891
1743371081068,17:44:41.068,67,-1,1251.28205128205,1.4005994005994,32.9257554950891
1743371081088,17:44:41.088,67,-1,1253.47985347985,1.4001554001554,32.9257554950891
1743371081107,17:44:41.107,67,-1,1252.74725274725,1.4001554001554,32.9257554950891
1743371081127,17:44:41.127,72,-1,1243.22344322344,1.4001554001554,32.9257554950891
1743371081146,17:44:41.146,72,-1,1228.57142857143,1.4005994005994,32.9257554950891
1743371081166,17:44:41.166,72,-1,1210.98901098901,1.4005994005994,32.9257554950891
1743371081185,17:44:41.185,72,-1,1200.7326007326,1.4001554001554,32.9257554950891
1743371081205,17:44:41.205,72,-1,1193.40659340659,1.4001554001554,32.9257554950891
1743371081224,17:44:41.224,72,-1,1186.81318681319,1.4001554001554,32.9257554950891
1743371081244,17:44:41.244,72,-1,1184.61538461538,1.4001554001554,32.9257554950891
1743371081263,17:44:41.263,72,-1,1193.40659340659,1.4001554001554,32.9257554950891
1743371081283,17:44:41.283,72,-1,1260.80586080586,1.4001554001554,32.9257554950891
1743371081302,17:44:41.302,72,-1,1382.41758241758,1.4001554001554,32.9257554950891
1743371081322,17:44:41.322,72,-1,1507.69230769231,1.3997113997114,32.9257554950891
1743371081341,17:44:41.341,72,-1,1627.10622710623,1.3997113997114,32.9257554950891
1743371081361,17:44:41.361,72,-1,1716.48351648352,1.3997113997114,32.9257554950891
1743371081380,17:44:41.380,72,-1,1786.81318681319,1.3997113997114,32.9257554950891
1743371081400,17:44:41.400,72,-1,1828.57142857143,1.3992673992674,32.9257554950891
1743371081419,17:44:41.419,72,-1,1835.89743589744,1.3997113997114,32.9257554950891
1743371081439,17:44:41.439,72,-1,1807.32600732601,1.3992673992674,32.9257554950891
1743371081458,17:44:41.458,72,-1,1778.02197802198,1.3992673992674,32.9257554950891
1743371081478,17:44:41.478,72,-1,1761.17216117216,1.3992673992674,32.9257554950891
1743371081497,17:44:41.497,72,-1,1739.19413919414,1.3992673992674,32.9257554950891
1743371081517,17:44:41.517,72,-1,1707.69230769231,1.3992673992674,32.9257554950891
1743371081536,17:44:41.536,72,-1,1655.67765567766,1.3992673992674,32.9257554950891
1743371081556,17:44:41.556,72,-1,1592.67399267399,1.3988233988234,32.9257554950891
1743371081575,17:44:41.575,72,-1,1533.33333333333,1.3988233988234,32.9257554950891
1743371081595,17:44:41.595,72,-1,1495.9706959707,1.3992673992674,32.9257554950891
1743371081614,17:44:41.614,72,-1,1468.13186813187,1.3992673992674,32.9257554950891
1743371081634,17:44:41.634,72,-1,1452.01465201465,1.3992673992674,32.9257554950891
1743371081653,17:44:41.653,72,-1,1435.16483516484,1.3988233988234,32.9257554950891
1743371081673,17:44:41.673,72,-1,1411.72161172161,1.3988233988234,32.9257554950891
1743371081692,17:44:41.692,72,-1,1400,1.3992673992674,32.9257554950891
1743371081712,17:44:41.712,72,-1,1389.74358974359,1.3992673992674,32.9257554950891
1743371081731,17:44:41.731,72,-1,1374.35897435897,1.3992673992674,32.9257554950891
1743371081751,17:44:41.751,72,-1,1355.31135531136,1.3992673992674,32.9257554950891
1743371081770,17:44:41.770,72,-1,1337.72893772894,1.3988233988234,32.9257554950891
1743371081790,17:44:41.790,72,-1,1326.73992673993,1.3988233988234,32.9257554950891
1743371081809,17:44:41.809,72,-1,1302.5641025641,1.3988233988234,32.9257554950891
1743371081829,17:44:41.829,72,-1,1265.93406593407,1.3992673992674,32.9257554950891
1743371081848,17:44:41.848,72,-1,1238.09523809524,1.3992673992674,32.9257554950891
1743371081868,17:44:41.868,72,-1,1218.31501831502,1.3992673992674,32.9257554950891
1743371081887,17:44:41.887,72,-1,1201.4652014652,1.3992673992674,32.9257554950891
1743371081907,17:44:41.907,72,-1,1183.88278388278,1.3988233988234,32.9257554950891
1743371081926,17:44:41.926,72,-1,1175.09157509158,1.3992673992674,32.9257554950891
1743371081946,17:44:41.946,72,-1,1174.35897435897,1.3988233988234,32.9257554950891
1743371081965,17:44:41.965,72,-1,1171.42857142857,1.3992673992674,32.9257554950891
1743371081985,17:44:41.985,72,-1,1170.69597069597,1.3988233988234,32.9257554950891
1743371082004,17:44:42.004,73,-1,1169.96336996337,1.3988233988234,32.9257554950891
1743371082024,17:44:42.024,73,-1,1166.30036630037,1.3988233988234,32.9257554950891
1743371082043,17:44:42.043,73,-1,1156.77655677656,1.3988233988234,32.9257554950891
1743371082063,17:44:42.063,73,-1,1150.18315018315,1.3988233988234,32.9257554950891
1743371082082,17:44:42.082,73,-1,1141.39194139194,1.3988233988234,32.9257554950891
1743371082102,17:44:42.102,73,-1,1141.39194139194,1.3988233988234,32.9257554950891
1743371082121,17:44:42.121,73,-1,1145.05494505494,1.3988233988234,32.9257554950891
1743371082141,17:44:42.141,73,-1,1162.63736263736,1.3988233988234,32.9257554950891
1743371082160,17:44:42.160,73,-1,1214.65201465201,1.3988233988234,32.9257554950891
1743371082180,17:44:42.180,73,-1,1296.7032967033,1.3988233988234,32.9257554950891
1743371082199,17:44:42.199,73,-1,1400,1.3988233988234,32.9257554950891
1743371082219,17:44:42.219,73,-1,1490.84249084249,1.3988233988234,32.9257554950891
1743371082238,17:44:42.238,73,-1,1564.10256410256,1.3988233988234,32.9257554950891
1743371082258,17:44:42.258,73,-1,1605.12820512821,1.3988233988234,32.9257554950891
1743371082277,17:44:42.277,73,-1,1629.30402930403,1.3988233988234,32.9257554950891
1743371082297,17:44:42.297,73,-1,1638.09523809524,1.3988233988234,32.9257554950891
1743371082316,17:44:42.316,73,-1,1646.15384615385,1.3988233988234,32.9257554950891
1743371082336,17:44:42.336,73,-1,1639.56043956044,1.3988233988234,32.9257554950891
1743371082355,17:44:42.355,73,-1,1621.97802197802,1.3988233988234,32.9257554950891
1743371082375,17:44:42.375,73,-1,1581.68498168498,1.3988233988234,32.9257554950891
1743371082394,17:44:42.394,73,-1,1537.72893772894,1.3988233988234,32.9257554950891
1743371082414,17:44:42.414,73,-1,1493.04029304029,1.3988233988234,32.9257554950891
1743371082433,17:44:42.433,73,-1,1449.08424908425,1.3988233988234,32.9257554950891
1743371082453,17:44:42.453,73,-1,1411.72161172161,1.3983793983794,32.9257554950891
1743371082472,17:44:42.472,73,-1,1386.08058608059,1.3983793983794,32.9257554950891
1743371082492,17:44:42.492,73,-1,1379.48717948718,1.3983793983794,32.9257554950891
1743371082511,17:44:42.511,73,-1,1379.48717948718,1.3983793983794,32.9257554950891
1743371082531,17:44:42.531,73,-1,1369.23076923077,1.3983793983794,32.9257554950891
1743371082550,17:44:42.550,73,-1,1359.70695970696,1.3983793983794,32.9257554950891
1743371082570,17:44:42.570,73,-1,1356.77655677656,1.3983793983794,32.9257554950891
1743371082589,17:44:42.589,73,-1,1335.53113553114,1.3979353979354,32.9257554950891
1743371082609,17:44:42.609,73,-1,1313.55311355311,1.3979353979354,32.9257554950891
1743371082628,17:44:42.628,73,-1,1295.9706959707,1.3979353979354,32.9257554950891
1743371082648,17:44:42.648,73,-1,1279.85347985348,1.3983793983794,32.9257554950891
1743371082667,17:44:42.667,73,-1,1256.41025641026,1.3979353979354,32.9257554950891
1743371082687,17:44:42.687,73,-1,1248.35164835165,1.3979353979354,32.9257554950891
1743371082706,17:44:42.706,73,-1,1232.23443223443,1.3979353979354,32.9257554950891
1743371082726,17:44:42.726,73,-1,1226.37362637363,1.3979353979354,32.9257554950891
1743371082745,17:44:42.745,73,-1,1219.78021978022,1.3979353979354,32.9257554950891
1743371082765,17:44:42.765,73,-1,1208.05860805861,1.3983793983794,32.9257554950891
1743371082784,17:44:42.784,73,-1,1202.9304029304,1.3979353979354,32.9257554950891
1743371082804,17:44:42.804,73,-1,1198.5347985348,1.3979353979354,32.9257554950891
1743371082823,17:44:42.823,73,-1,1189.01098901099,1.3979353979354,32.9257554950891
1743371082843,17:44:42.843,73,-1,1184.61538461538,1.3979353979354,32.9257554950891
1743371082862,17:44:42.862,73,-1,1175.82417582418,1.3979353979354,32.9257554950891
1743371082882,17:44:42.882,68,-1,1175.82417582418,1.3983793983794,32.9257554950891
1743371082901,17:44:42.901,68,-1,1169.96336996337,1.3979353979354,32.9257554950891
1743371082921,17:44:42.921,68,-1,1165.56776556777,1.3979353979354,32.9257554950891
1743371082940,17:44:42.940,68,-1,1185.34798534799,1.3983793983794,32.9257554950891
1743371082960,17:44:42.960,68,-1,1233.69963369963,1.3979353979354,32.9257554950891
1743371082979,17:44:42.979,68,-1,1308.42490842491,1.3983793983794,32.9257554950891
1743371082999,17:44:42.999,68,-1,1397.0695970696,1.3983793983794,32.9257554950891
1743371083018,17:44:43.018,68,-1,1485.71428571429,1.3979353979354,32.9257554950891
1743371083038,17:44:43.038,68,-1,1573.62637362637,1.3979353979354,32.9257554950891
1743371083057,17:44:43.057,68,-1,1621.97802197802,1.3979353979354,32.9257554950891
1743371083077,17:44:43.077,68,-1,1633.69963369963,1.3979353979354,32.9257554950891
1743371083096,17:44:43.096,68,-1,1614.65201465201,1.3983793983794,32.9257554950891
1743371083116,17:44:43.116,68,-1,1602.1978021978,1.3979353979354,32.9257554950891
1743371083135,17:44:43.135,68,-1,1611.72161172161,1.3979353979354,32.9257554950891
1743371083155,17:44:43.155,68,-1,1611.72161172161,1.3974913974914,32.9257554950891
1743371083174,17:44:43.174,68,-1,1593.40659340659,1.3979353979354,32.9257554950891
1743371083194,17:44:43.194,68,-1,1561.17216117216,1.3979353979354,32.9257554950891
1743371083213,17:44:43.213,68,-1,1508.42490842491,1.3979353979354,32.9257554950891
1743371083233,17:44:43.233,68,-1,1449.81684981685,1.3983793983794,32.9257554950891
1743371083252,17:44:43.252,68,-1,1415.38461538462,1.3979353979354,32.9257554950891
1743371083272,17:44:43.272,68,-1,1397.8021978022,1.3979353979354,32.9257554950891
1743371083291,17:44:43.291,68,-1,1376.55677655678,1.3979353979354,32.9257554950891
1743371083311,17:44:43.311,68,-1,1371.42857142857,1.3979353979354,32.9257554950891
1743371083330,17:44:43.330,68,-1,1375.09157509157,1.3979353979354,32.9257554950891
1743371083350,17:44:43.350,68,-1,1372.89377289377,1.3979353979354,32.9257554950891
1743371083369,17:44:43.369,68,-1,1361.90476190476,1.3979353979354,32.9257554950891
1743371083389,17:44:43.389,68,-1,1356.04395604396,1.3979353979354,32.9257554950891
1743371083408,17:44:43.408,68,-1,1336.26373626374,1.3979353979354,32.9257554950891
1743371083428,17:44:43.428,68,-1,1316.48351648352,1.3979353979354,32.9257554950891
1743371083447,17:44:43.447,68,-1,1293.77289377289,1.3979353979354,32.9257554950891
1743371083467,17:44:43.467,68,-1,1264.46886446886,1.3979353979354,32.9257554950891
1743371083486,17:44:43.486,68,-1,1234.43223443223,1.3979353979354,32.9257554950891
1743371083506,17:44:43.506,68,-1,1224.17582417582,1.3974913974914,32.9257554950891
1743371083525,17:44:43.525,68,-1,1221.24542124542,1.3974913974914,32.9257554950891
1743371083545,17:44:43.545,68,-1,1221.24542124542,1.3979353979354,32.9257554950891
1743371083564,17:44:43.564,68,-1,1219.78021978022,1.3979353979354,32.9257554950891
1743371083584,17:44:43.584,68,-1,1205.86080586081,1.3979353979354,32.9257554950891
1743371083603,17:44:43.603,68,-1,1205.12820512821,1.3979353979354,32.9257554950891
1743371083623,17:44:43.623,68,-1,1205.86080586081,1.3979353979354,32.9257554950891
1743371083642,17:44:43.642,68,-1,1194.87179487179,1.3979353979354,32.9257554950891
1743371083662,17:44:43.662,68,-1,1179.48717948718,1.3979353979354,32.9257554950891
1743371083681,17:44:43.681,68,-1,1174.35897435897,1.3979353979354,32.9257554950891
1743371083701,17:44:43.701,68,-1,1175.82417582418,1.3979353979354,32.9257554950891
1743371083720,17:44:43.720,68,-1,1198.5347985348,1.3979353979354,32.9257554950891
1743371083740,17:44:43.740,68,-1,1243.95604395604,1.3979353979354,32.9257554950891
1743371083759,17:44:43.759,68,-1,1322.34432234432,1.3979353979354,32.9257554950891
1743371083779,17:44:43.779,68,-1,1422.71062271062,1.3979353979354,32.9257554950891
1743371083798,17:44:43.798,68,-1,1515.75091575092,1.3979353979354,32.9257554950891
1743371083818,17:44:43.818,68,-1,1586.08058608059,1.3979353979354,32.9257554950891
1743371083837,17:44:43.837,68,-1,1634.43223443223,1.3974913974914,32.9257554950891
1743371083857,17:44:43.857,68,-1,1659.34065934066,1.3974913974914,32.9257554950891
1743371083876,17:44:43.876,68,-1,1657.87545787546,1.3974913974914,32.9257554950891
1743371083896,17:44:43.896,68,-1,1656.41025641026,1.3974913974914,32.9257554950891
1743371083915,17:44:43.915,68,-1,1655.67765567766,1.3974913974914,32.9257554950891
1743371083935,17:44:43.935,68,-1,1641.75824175824,1.3974913974914,32.9257554950891
1743371083954,17:44:43.954,68,-1,1622.71062271062,1.3974913974914,32.9257554950891
1743371083974,17:44:43.974,68,-1,1593.40659340659,1.3974913974914,32.9257554950891
1743371083993,17:44:43.993,68,-1,1550.18315018315,1.3970473970474,32.9257554950891
1743371084013,17:44:44.013,68,-1,1503.2967032967,1.3974913974914,32.9257554950891
1743371084032,17:44:44.032,68,-1,1474.72527472527,1.3970473970474,32.9257554950891
1743371084052,17:44:44.052,68,-1,1452.74725274725,1.3970473970474,32.9257554950891
1743371084071,17:44:44.071,68,-1,1430.03663003663,1.3970473970474,32.9257554950891
1743371084091,17:44:44.091,68,-1,1398.5347985348,1.3970473970474,32.9257554950891
1743371084110,17:44:44.110,68,-1,1380.95238095238,1.3970473970474,32.9257554950891
1743371084130,17:44:44.130,68,-1,1373.62637362637,1.3974913974914,32.9257554950891
1743371084149,17:44:44.149,68,-1,1367.03296703297,1.3974913974914,32.9257554950891
1743371084169,17:44:44.169,68,-1,1355.31135531136,1.3970473970474,32.9257554950891
1743371084188,17:44:44.188,68,-1,1347.98534798535,1.3970473970474,32.9257554950891
1743371084208,17:44:44.208,68,-1,1331.13553113553,1.3970473970474,32.9257554950891
1743371084227,17:44:44.227,68,-1,1307.69230769231,1.3970473970474,32.9257554950891
1743371084247,17:44:44.247,68,-1,1285.71428571429,1.3974913974914,32.9257554950891
1743371084266,17:44:44.266,68,-1,1266.66666666667,1.3970473970474,32.9257554950891
1743371084286,17:44:44.286,68,-1,1251.28205128205,1.3970473970474,32.9257554950891
1743371084305,17:44:44.305,68,-1,1249.08424908425,1.3966033966034,32.9257554950891
1743371084325,17:44:44.325,68,-1,1242.49084249084,1.3966033966034,32.9257554950891
1743371084344,17:44:44.344,68,-1,1232.96703296703,1.3966033966034,32.9257554950891
1743371084364,17:44:44.364,68,-1,1220.51282051282,1.3970473970474,32.9257554950891
1743371084383,17:44:44.383,68,-1,1218.31501831502,1.3970473970474,32.9257554950891
1743371084403,17:44:44.403,68,-1,1222.71062271062,1.3966033966034,32.9257554950891
1743371084422,17:44:44.422,68,-1,1219.04761904762,1.3966033966034,32.9257554950891
1743371084442,17:44:44.442,68,-1,1208.05860805861,1.3966033966034,32.9257554950891
1743371084461,17:44:44.461,68,-1,1198.5347985348,1.3966033966034,32.9257554950891
1743371084481,17:44:44.481,68,-1,1194.13919413919,1.3970473970474,32.9257554950891
1743371084500,17:44:44.500,68,-1,1186.81318681319,1.3970473970474,32.9257554950891
1743371084520,17:44:44.520,73,-1,1182.41758241758,1.3966033966034,32.9257554950891
1743371084539,17:44:44.539,73,-1,1171.42857142857,1.3966033966034,32.9257554950891
1743371084559,17:44:44.559,73,-1,1186.08058608059,1.3966033966034,32.9257554950891
1743371084578,17:44:44.578,73,-1,1228.57142857143,1.3974913974914,32.9257554950891
1743371084598,17:44:44.598,73,-1,1296.7032967033,1.3970473970474,32.9257554950891
1743371084617,17:44:44.617,73,-1,1389.74358974359,1.3966033966034,32.9257554950891
1743371084637,17:44:44.637,73,-1,1482.05128205128,1.3970473970474,32.9257554950891
1743371084656,17:44:44.656,73,-1,1563.36996336996,1.3966033966034,32.9257554950891
1743371084676,17:44:44.676,73,-1,1628.57142857143,1.3970473970474,32.9257554950891
1743371084695,17:44:44.695,73,-1,1673.26007326007,1.3970473970474,32.9257554950891
1743371084715,17:44:44.715,73,-1,1679.12087912088,1.3970473970474,32.9257554950891
1743371084734,17:44:44.734,73,-1,1683.51648351648,1.3970473970474,32.9257554950891
1743371084754,17:44:44.754,73,-1,1688.64468864469,1.3966033966034,32.9257554950891
1743371084773,17:44:44.773,73,-1,1672.52747252747,1.3966033966034,32.9257554950891
1743371084793,17:44:44.793,73,-1,1646.88644688645,1.3966033966034,32.9257554950891
1743371084812,17:44:44.812,73,-1,1624.17582417582,1.3966033966034,32.9257554950891
1743371084832,17:44:44.832,73,-1,1597.8021978022,1.3966033966034,32.9257554950891
1743371084851,17:44:44.851,73,-1,1545.05494505494,1.3966033966034,32.9257554950891
1743371084871,17:44:44.871,73,-1,1522.34432234432,1.3966033966034,32.9257554950891
1743371084890,17:44:44.890,73,-1,1506.95970695971,1.3966033966034,32.9257554950891
1743371084910,17:44:44.910,73,-1,1494.50549450549,1.3961593961594,32.9257554950891
1743371084929,17:44:44.929,73,-1,1473.99267399267,1.3966033966034,32.9257554950891
1743371084949,17:44:44.949,73,-1,1445.42124542125,1.3961593961594,32.9257554950891
1743371084968,17:44:44.968,73,-1,1408.05860805861,1.3961593961594,32.9257554950891
1743371084988,17:44:44.988,73,-1,1391.94139194139,1.3957153957154,32.9257554950891
1743371085007,17:44:45.007,73,-1,1386.08058608059,1.3957153957154,32.9257554950891
1743371085027,17:44:45.027,73,-1,1384.61538461538,1.3957153957154,32.9257554950891
1743371085046,17:44:45.046,73,-1,1386.08058608059,1.3957153957154,32.9257554950891
1743371085066,17:44:45.066,73,-1,1383.88278388278,1.3957153957154,32.9257554950891
1743371085085,17:44:45.085,73,-1,1364.83516483516,1.3957153957154,32.9257554950891
1743371085105,17:44:45.105,73,-1,1347.25274725275,1.3952713952714,32.9257554950891
1743371085124,17:44:45.124,73,-1,1324.54212454212,1.3957153957154,32.9357633254258
1743371085144,17:44:45.144,73,-1,1306.95970695971,1.3957153957154,32.9357633254258
1743371085163,17:44:45.163,73,-1,1283.51648351648,1.3957153957154,32.9357633254258
1743371085183,17:44:45.183,73,-1,1255.67765567766,1.3957153957154,32.9357633254258
1743371085202,17:44:45.202,73,-1,1243.95604395604,1.3957153957154,32.9357633254258
1743371085222,17:44:45.222,73,-1,1236.63003663004,1.3952713952714,32.9357633254258
1743371085241,17:44:45.241,73,-1,1235.16483516484,1.3952713952714,32.9357633254258
1743371085261,17:44:45.261,73,-1,1232.96703296703,1.3952713952714,32.9357633254258
1743371085280,17:44:45.280,73,-1,1235.89743589744,1.3952713952714,32.9357633254258
1743371085300,17:44:45.300,73,-1,1235.89743589744,1.3952713952714,32.9357633254258
1743371085319,17:44:45.319,73,-1,1230.76923076923,1.39482739482739,32.9357633254258
1743371085339,17:44:45.339,73,-1,1230.03663003663,1.39438339438339,32.9357633254258
1743371085358,17:44:45.358,73,-1,1215.38461538462,1.39482739482739,32.9357633254258
1743371085378,17:44:45.378,73,-1,1205.86080586081,1.39482739482739,32.9357633254258
1743371085397,17:44:45.397,73,-1,1196.336996337,1.39482739482739,32.9357633254258
1743371085417,17:44:45.417,73,-1,1188.27838827839,1.39482739482739,32.9357633254258
1743371085436,17:44:45.436,73,-1,1185.34798534799,1.39438339438339,32.9357633254258
1743371085456,17:44:45.456,73,-1,1184.61538461538,1.39438339438339,32.9357633254258
1743371085475,17:44:45.475,73,-1,1216.11721611722,1.39438339438339,32.9357633254258
1743371085495,17:44:45.495,73,-1,1288.64468864469,1.39438339438339,32.9357633254258
1743371085514,17:44:45.514,73,-1,1382.41758241758,1.39438339438339,32.9357633254258
1743371085534,17:44:45.534,73,-1,1480.58608058608,1.39438339438339,32.9357633254258
1743371085553,17:44:45.553,73,-1,1567.03296703297,1.39393939393939,32.9357633254258
1743371085573,17:44:45.573,73,-1,1622.71062271062,1.39393939393939,32.9357633254258
1743371085592,17:44:45.592,73,-1,1662.27106227106,1.39393939393939,32.9357633254258
1743371085612,17:44:45.612,73,-1,1682.78388278388,1.39393939393939,32.9357633254258
1743371085631,17:44:45.631,73,-1,1690.84249084249,1.39393939393939,32.9357633254258
1743371085651,17:44:45.651,73,-1,1695.9706959707,1.39393939393939,32.9357633254258
1743371085670,17:44:45.670,73,-1,1693.04029304029,1.39393939393939,32.9357633254258
1743371085690,17:44:45.690,73,-1,1684.24908424908,1.39393939393939,32.9357633254258
1743371085709,17:44:45.709,73,-1,1673.26007326007,1.39393939393939,32.9357633254258
1743371085729,17:44:45.729,73,-1,1656.41025641026,1.39349539349539,32.9357633254258
1743371085748,17:44:45.748,73,-1,1619.04761904762,1.39393939393939,32.9357633254258
1743371085768,17:44:45.768,73,-1,1584.61538461538,1.39393939393939,32.9357633254258
1743371085787,17:44:45.787,73,-1,1567.76556776557,1.39393939393939,32.9357633254258
1743371085807,17:44:45.807,73,-1,1560.43956043956,1.39349539349539,32.9357633254258
1743371085826,17:44:45.826,73,-1,1536.99633699634,1.39305139305139,32.9357633254258
1743371085846,17:44:45.846,73,-1,1519.41391941392,1.39305139305139,32.9357633254258
1743371085865,17:44:45.865,73,-1,1501.0989010989,1.39349539349539,32.9357633254258
1743371085885,17:44:45.885,73,-1,1488.64468864469,1.39305139305139,32.9357633254258
1743371085904,17:44:45.904,73,-1,1492.30769230769,1.39305139305139,32.9357633254258
1743371085924,17:44:45.924,73,-1,1504.0293040293,1.39260739260739,32.9357633254258
1743371085943,17:44:45.943,73,-1,1487.17948717949,1.39305139305139,32.9357633254258
1743371085963,17:44:45.963,73,-1,1475.45787545788,1.39305139305139,32.9357633254258
1743371085982,17:44:45.982,73,-1,1473.26007326007,1.39305139305139,32.9357633254258
1743371086002,17:44:46.002,73,-1,1463.00366300366,1.39260739260739,32.9357633254258
1743371086021,17:44:46.021,73,-1,1452.74725274725,1.39260739260739,32.9357633254258
1743371086041,17:44:46.041,73,-1,1448.35164835165,1.39216339216339,32.9357633254258
1743371086060,17:44:46.060,73,-1,1436.63003663004,1.39260739260739,32.9357633254258
1743371086080,17:44:46.080,73,-1,1421.97802197802,1.39260739260739,32.9357633254258
1743371086099,17:44:46.099,73,-1,1419.04761904762,1.39260739260739,32.9357633254258
1743371086119,17:44:46.119,73,-1,1419.78021978022,1.39260739260739,32.9307594131678
1743371086138,17:44:46.138,73,-1,1401.4652014652,1.39216339216339,32.9307594131678
1743371086158,17:44:46.158,73,-1,1386.81318681319,1.39171939171939,32.9307594131678
1743371086177,17:44:46.177,73,-1,1391.94139194139,1.39171939171939,32.9307594131678
1743371086197,17:44:46.197,73,-1,1389.74358974359,1.39171939171939,32.9307594131678
1743371086216,17:44:46.216,73,-1,1378.02197802198,1.39171939171939,32.9307594131678
1743371086236,17:44:46.236,73,-1,1358.97435897436,1.39127539127539,32.9307594131678
1743371086255,17:44:46.255,73,-1,1345.78754578755,1.39083139083139,32.9307594131678
1743371086275,17:44:46.275,73,-1,1342.12454212454,1.39038739038739,32.9307594131678
1743371086294,17:44:46.294,73,-1,1331.13553113553,1.39083139083139,32.9307594131678
1743371086314,17:44:46.314,73,-1,1334.06593406593,1.39083139083139,32.9307594131678
1743371086333,17:44:46.333,73,-1,1369.23076923077,1.39038739038739,32.9307594131678
1743371086353,17:44:46.353,73,-1,1439.56043956044,1.39038739038739,32.9307594131678
1743371086372,17:44:46.372,73,-1,1536.26373626374,1.39038739038739,32.9307594131678
1743371086392,17:44:46.392,73,-1,1625.64102564103,1.38994338994339,32.9307594131678
1743371086411,17:44:46.411,73,-1,1694.50549450549,1.38994338994339,32.9307594131678
1743371086431,17:44:46.431,73,-1,1734.79853479853,1.38994338994339,32.9307594131678
1743371086450,17:44:46.450,73,-1,1733.33333333333,1.39038739038739,32.9307594131678
1743371086470,17:44:46.470,73,-1,1715.01831501831,1.38994338994339,32.9307594131678
1743371086489,17:44:46.489,73,-1,1692.30769230769,1.38994338994339,32.9307594131678
1743371086509,17:44:46.509,73,-1,1679.85347985348,1.38994338994339,32.9307594131678
1743371086528,17:44:46.528,73,-1,1668.13186813187,1.38994338994339,32.9307594131678
1743371086548,17:44:46.548,73,-1,1660.80586080586,1.39038739038739,32.9307594131678
1743371086567,17:44:46.567,73,-1,1646.15384615385,1.39038739038739,32.9307594131678
1743371086587,17:44:46.587,73,-1,1619.04761904762,1.38994338994339,32.9307594131678
1743371086606,17:44:46.606,73,-1,1592.67399267399,1.38994338994339,32.9307594131678
1743371086626,17:44:46.626,73,-1,1566.30036630037,1.38994338994339,32.9307594131678
1743371086645,17:44:46.645,73,-1,1543.58974358974,1.39038739038739,32.9307594131678
1743371086665,17:44:46.665,73,-1,1518.68131868132,1.39038739038739,32.9307594131678
1743371086684,17:44:46.684,73,-1,1492.30769230769,1.39038739038739,32.9307594131678
1743371086704,17:44:46.704,73,-1,1471.79487179487,1.39083139083139,32.9307594131678
1743371086723,17:44:46.723,73,-1,1452.01465201465,1.39083139083139,32.9307594131678
1743371086743,17:44:46.743,73,-1,1421.24542124542,1.39083139083139,32.9307594131678
1743371086762,17:44:46.762,73,-1,1377.28937728938,1.39083139083139,32.9307594131678
1743371086782,17:44:46.782,73,-1,1342.12454212454,1.39083139083139,32.9307594131678
1743371086801,17:44:46.801,73,-1,1317.21611721612,1.39083139083139,32.9307594131678
1743371086821,17:44:46.821,73,-1,1306.22710622711,1.39038739038739,32.9307594131678
1743371086840,17:44:46.840,73,-1,1301.0989010989,1.39038739038739,32.9307594131678
1743371086860,17:44:46.860,73,-1,1307.69230769231,1.39038739038739,32.9307594131678
1743371086879,17:44:46.879,73,-1,1317.21611721612,1.39038739038739,32.9307594131678
1743371086899,17:44:46.899,73,-1,1321.61172161172,1.38994338994339,32.9307594131678
1743371086918,17:44:46.918,73,-1,1305.49450549451,1.38905538905539,32.9307594131678
1743371086938,17:44:46.938,73,-1,1281.31868131868,1.38861138861139,32.9307594131678
1743371086957,17:44:46.957,73,-1,1267.39926739927,1.38772338772339,32.9307594131678
1743371086977,17:44:46.977,73,-1,1252.01465201465,1.38727938727939,32.9307594131678
1743371086996,17:44:46.996,73,-1,1239.56043956044,1.38727938727939,32.9307594131678
1743371087016,17:44:47.016,73,-1,1213.91941391941,1.38639138639139,32.9307594131678
1743371087035,17:44:47.035,67,-1,1199.2673992674,1.38594738594739,32.9307594131678
1743371087055,17:44:47.055,67,-1,1192.67399267399,1.38461538461538,32.9307594131678
1743371087074,17:44:47.074,67,-1,1194.87179487179,1.38328338328338,32.9307594131678
1743371087094,17:44:47.094,67,-1,1204.3956043956,1.38195138195138,32.9307594131678
1743371087113,17:44:47.113,67,-1,1239.56043956044,1.38061938061938,32.9307594131678
1743371087133,17:44:47.133,67,-1,1292.30769230769,1.37928737928738,32.9307594131678
1743371087152,17:44:47.152,67,-1,1378.02197802198,1.37795537795538,32.9307594131678
1743371087172,17:44:47.172,67,-1,1477.65567765568,1.37573537573538,32.9307594131678
1743371087191,17:44:47.191,67,-1,1562.63736263736,1.37440337440337,32.9307594131678
1743371087211,17:44:47.211,67,-1,1619.78021978022,1.37262737262737,32.9307594131678
1743371087230,17:44:47.230,67,-1,1654.94505494505,1.37085137085137,32.9307594131678
1743371087250,17:44:47.250,67,-1,1668.86446886447,1.36996336996337,32.9307594131678
1743371087269,17:44:47.269,67,-1,1673.99267399267,1.36863136863137,32.9307594131678
1743371087289,17:44:47.289,67,-1,1671.79487179487,1.36774336774337,32.9307594131678
1743371087308,17:44:47.308,67,-1,1661.53846153846,1.36685536685537,32.9307594131678
1743371087328,17:44:47.328,67,-1,1654.94505494505,1.36641136641137,32.9307594131678
1743371087347,17:44:47.347,67,-1,1652.74725274725,1.36596736596737,32.9307594131678
1743371087367,17:44:47.367,67,-1,1638.09523809524,1.36596736596737,32.9307594131678
1743371087386,17:44:47.386,67,-1,1602.1978021978,1.36641136641137,32.9307594131678
1743371087406,17:44:47.406,67,-1,1559.70695970696,1.36685536685537,32.9307594131678
1743371087425,17:44:47.425,67,-1,1514.28571428571,1.36774336774337,32.9307594131678
1743371087445,17:44:47.445,67,-1,1484.98168498168,1.36863136863137,32.9307594131678
1743371087464,17:44:47.464,67,-1,1479.85347985348,1.36996336996337,32.9307594131678
1743371087484,17:44:47.484,67,-1,1478.38827838828,1.37085137085137,32.9307594131678
1743371087503,17:44:47.503,67,-1,1475.45787545788,1.37218337218337,32.9307594131678
1743371087523,17:44:47.523,67,-1,1472.52747252747,1.37351537351537,32.9307594131678
1743371087542,17:44:47.542,67,-1,1451.28205128205,1.37484737484737,32.9307594131678
1743371087562,17:44:47.562,67,-1,1433.69963369963,1.37662337662338,32.9307594131678
1743371087581,17:44:47.581,67,-1,1413.91941391941,1.37839937839938,32.9307594131678
1743371087601,17:44:47.601,67,-1,1402.9304029304,1.38017538017538,32.9307594131678
1743371087620,17:44:47.620,67,-1,1382.41758241758,1.38195138195138,32.9307594131678
1743371087640,17:44:47.640,67,-1,1379.48717948718,1.38283938283938,32.9307594131678
1743371087659,17:44:47.659,67,-1,1365.56776556777,1.38372738372738,32.9307594131678
1743371087679,17:44:47.679,67,-1,1352.38095238095,1.38505938505939,32.9307594131678
1743371087698,17:44:47.698,67,-1,1326.00732600733,1.38594738594739,32.9307594131678
1743371087718,17:44:47.718,67,-1,1301.8315018315,1.38683538683539,32.9307594131678
1743371087737,17:44:47.737,67,-1,1290.84249084249,1.38727938727939,32.9307594131678
1743371087757,17:44:47.757,67,-1,1295.2380952381,1.38772338772339,32.9307594131678
1743371087776,17:44:47.776,67,-1,1299.6336996337,1.38816738816739,32.9307594131678
1743371087796,17:44:47.796,75,-1,1305.49450549451,1.38861138861139,32.9307594131678
1743371087815,17:44:47.815,75,-1,1303.2967032967,1.38861138861139,32.9307594131678
1743371087835,17:44:47.835,75,-1,1301.8315018315,1.38905538905539,32.9307594131678
1743371087854,17:44:47.854,75,-1,1294.50549450549,1.38905538905539,32.9307594131678
1743371087874,17:44:47.874,75,-1,1284.24908424908,1.38949938949939,32.9307594131678
1743371087893,17:44:47.893,75,-1,1264.46886446886,1.38994338994339,32.9307594131678
1743371087913,17:44:47.913,75,-1,1290.10989010989,1.38994338994339,32.9307594131678
1743371087932,17:44:47.932,75,-1,1355.31135531136,1.39038739038739,32.9307594131678
1743371087952,17:44:47.952,75,-1,1457.14285714286,1.39083139083139,32.9307594131678
1743371087971,17:44:47.971,75,-1,1589.74358974359,1.39083139083139,32.9307594131678
1743371087991,17:44:47.991,75,-1,1706.95970695971,1.39083139083139,32.9307594131678
1743371088010,17:44:48.010,75,-1,1789.74358974359,1.39127539127539,32.9307594131678
1743371088030,17:44:48.030,75,-1,1849.08424908425,1.39127539127539,32.9307594131678
1743371088049,17:44:48.049,75,-1,1889.37728937729,1.39127539127539,32.9307594131678
1743371088069,17:44:48.069,75,-1,1909.89010989011,1.39171939171939,32.9307594131678
1743371088088,17:44:48.088,75,-1,1901.8315018315,1.39127539127539,32.9307594131678
1743371088108,17:44:48.108,75,-1,1893.04029304029,1.39127539127539,32.9357633254258
1743371088127,17:44:48.127,75,-1,1882.05128205128,1.39127539127539,32.9357633254258
1743371088147,17:44:48.147,75,-1,1875.45787545788,1.39127539127539,32.9357633254258
1743371088166,17:44:48.166,75,-1,1849.08424908425,1.39171939171939,32.9357633254258
1743371088186,17:44:48.186,75,-1,1799.2673992674,1.39171939171939,32.9357633254258
1743371088205,17:44:48.205,75,-1,1755.31135531136,1.39171939171939,32.9357633254258
1743371088225,17:44:48.225,75,-1,1726.73992673993,1.39127539127539,32.9357633254258
1743371088244,17:44:48.244,75,-1,1700.3663003663,1.39127539127539,32.9357633254258
1743371088264,17:44:48.264,75,-1,1679.12087912088,1.39127539127539,32.9357633254258
1743371088283,17:44:48.283,75,-1,1667.39926739927,1.39171939171939,32.9357633254258
1743371088303,17:44:48.303,75,-1,1648.35164835165,1.39127539127539,32.9357633254258
1743371088322,17:44:48.322,75,-1,1621.97802197802,1.39171939171939,32.9357633254258
1743371088342,17:44:48.342,75,-1,1589.01098901099,1.39171939171939,32.9357633254258
1743371088361,17:44:48.361,75,-1,1552.38095238095,1.39216339216339,32.9357633254258
1743371088381,17:44:48.381,75,-1,1529.67032967033,1.39216339216339,32.9357633254258
1743371088400,17:44:48.400,75,-1,1526.73992673993,1.39216339216339,32.9357633254258
1743371088420,17:44:48.420,75,-1,1506.95970695971,1.39171939171939,32.9357633254258
1743371088439,17:44:48.439,75,-1,1471.06227106227,1.38994338994339,32.9357633254258
1743371088459,17:44:48.459,75,-1,1437.36263736264,1.38772338772339,32.9357633254258
1743371088478,17:44:48.478,75,-1,1398.5347985348,1.38239538239538,32.9357633254258
1743371088498,17:44:48.498,75,-1,1363.36996336996,1.37529137529138,32.9357633254258
1743371088517,17:44:48.517,75,-1,1359.70695970696,1.36685536685537,32.9357633254258
1743371088537,17:44:48.537,75,-1,1356.77655677656,1.35797535797536,32.9357633254258
1743371088556,17:44:48.556,75,-1,1347.25274725275,1.35264735264735,32.9357633254258
1743371088576,17:44:48.576,75,-1,1331.86813186813,1.34953934953935,32.9357633254258
1743371088595,17:44:48.595,75,-1,1312.08791208791,1.34598734598735,32.9357633254258
1743371088615,17:44:48.615,75,-1,1305.49450549451,1.33932733932734,32.9357633254258
1743371088634,17:44:48.634,75,-1,1299.6336996337,1.33399933399933,32.9357633254258
1743371088654,17:44:48.654,79,-1,1290.84249084249,1.33222333222333,32.9357633254258
1743371088673,17:44:48.673,79,-1,1300.3663003663,1.32600732600733,32.9357633254258
1743371088693,17:44:48.693,79,-1,1298.9010989011,1.31091131091131,32.9357633254258
1743371088712,17:44:48.712,79,-1,1307.69230769231,1.2962592962593,32.9357633254258
1743371088732,17:44:48.732,79,-1,1356.04395604396,1.29048729048729,32.9357633254258
1743371088751,17:44:48.751,79,-1,1454.21245421245,1.28471528471528,32.9357633254258
1743371088771,17:44:48.771,79,-1,1580.95238095238,1.28116328116328,32.9357633254258
1743371088790,17:44:48.790,79,-1,1701.0989010989,1.27983127983128,32.9357633254258
1743371088810,17:44:48.810,79,-1,1794.87179487179,1.28027528027528,32.9357633254258
1743371088829,17:44:48.829,79,-1,1847.61904761905,1.28116328116328,32.9357633254258
1743371088849,17:44:48.849,79,-1,1882.78388278388,1.28249528249528,32.9357633254258
1743371088868,17:44:48.868,79,-1,1888.64468864469,1.29137529137529,32.9357633254258
1743371088888,17:44:48.888,79,-1,1878.38827838828,1.2971472971473,32.9357633254258
1743371088907,17:44:48.907,79,-1,1871.06227106227,1.3024753024753,32.9357633254258
1743371088927,17:44:48.927,79,-1,1846.88644688645,1.30913530913531,32.9357633254258
1743371088946,17:44:48.946,79,-1,1816.11721611722,1.31712731712732,32.9357633254258
1743371088966,17:44:48.966,79,-1,1779.48717948718,1.32467532467532,32.9357633254258
1743371088985,17:44:48.985,79,-1,1745.05494505494,1.33000333000333,32.9357633254258
1743371089005,17:44:49.005,79,-1,1700.3663003663,1.33444333444333,32.9357633254258
1743371089024,17:44:49.024,79,-1,1645.42124542125,1.34199134199134,32.9357633254258
1743371089044,17:44:49.044,79,-1,1609.52380952381,1.34953934953935,32.9357633254258
1743371089063,17:44:49.063,79,-1,1585.34798534799,1.35309135309135,32.9357633254258
1743371089083,17:44:49.083,79,-1,1564.83516483516,1.35309135309135,32.9357633254258
1743371089102,17:44:49.102,79,-1,1555.31135531136,1.35353535353535,32.940767231863
1743371089122,17:44:49.122,79,-1,1534.06593406593,1.35353535353535,32.940767231863
1743371089141,17:44:49.141,79,-1,1504.7619047619,1.35442335442335,32.940767231863
1743371089161,17:44:49.161,79,-1,1478.38827838828,1.34820734820735,32.940767231863
1743371089180,17:44:49.180,79,-1,1439.56043956044,1.34731934731935,32.940767231863
1743371089200,17:44:49.200,79,-1,1411.72161172161,1.34820734820735,32.940767231863
1743371089219,17:44:49.219,79,-1,1400,1.34465534465534,32.940767231863
1743371089239,17:44:49.239,79,-1,1390.47619047619,1.34332334332334,32.940767231863
1743371089258,17:44:49.258,79,-1,1367.76556776557,1.34243534243534,32.940767231863
1743371089278,17:44:49.278,79,-1,1343.58974358974,1.34199134199134,32.940767231863
1743371089297,17:44:49.297,79,-1,1323.80952380952,1.34110334110334,32.940767231863
1743371089317,17:44:49.317,79,-1,1295.2380952381,1.34065934065934,32.940767231863
1743371089336,17:44:49.336,79,-1,1265.20146520147,1.34110334110334,32.940767231863
1743371089356,17:44:49.356,79,-1,1246.15384615385,1.34154734154734,32.940767231863
1743371089375,17:44:49.375,79,-1,1232.96703296703,1.34465534465534,32.940767231863
1743371089395,17:44:49.395,79,-1,1232.23443223443,1.34865134865135,32.940767231863
1743371089414,17:44:49.414,79,-1,1223.44322344322,1.35087135087135,32.940767231863
1743371089434,17:44:49.434,79,-1,1204.3956043956,1.35353535353535,32.940767231863
1743371089453,17:44:49.453,79,-1,1205.12820512821,1.35531135531136,32.940767231863
1743371089473,17:44:49.473,79,-1,1209.52380952381,1.35575535575536,32.940767231863
1743371089492,17:44:49.492,79,-1,1215.38461538462,1.35531135531136,32.940767231863
1743371089512,17:44:49.512,79,-1,1207.32600732601,1.35531135531136,32.940767231863
1743371089531,17:44:49.531,79,-1,1205.12820512821,1.35442335442335,32.940767231863
1743371089551,17:44:49.551,70,-1,1203.663003663,1.35442335442335,32.940767231863
1743371089570,17:44:49.570,70,-1,1218.31501831502,1.35397935397935,32.940767231863
1743371089590,17:44:49.590,70,-1,1284.24908424908,1.35397935397935,32.940767231863
1743371089609,17:44:49.609,70,-1,1386.81318681319,1.35619935619936,32.940767231863
1743371089629,17:44:49.629,70,-1,1506.95970695971,1.35975135975136,32.940767231863
1743371089648,17:44:49.648,70,-1,1610.98901098901,1.36374736374736,32.940767231863
1743371089668,17:44:49.668,70,-1,1687.17948717949,1.36907536907537,32.940767231863
1743371089687,17:44:49.687,70,-1,1731.13553113553,1.37706737706738,32.940767231863
1743371089707,17:44:49.707,70,-1,1733.33333333333,1.38461538461538,32.940767231863
1743371089726,17:44:49.726,70,-1,1719.41391941392,1.38861138861139,32.940767231863
1743371089746,17:44:49.746,70,-1,1704.0293040293,1.39216339216339,32.940767231863
1743371089765,17:44:49.765,70,-1,1676.19047619048,1.3957153957154,32.940767231863
1743371089785,17:44:49.785,70,-1,1638.82783882784,1.3970473970474,32.940767231863
1743371089804,17:44:49.804,70,-1,1602.1978021978,1.3957153957154,32.940767231863
1743371089824,17:44:49.824,70,-1,1567.76556776557,1.39083139083139,32.940767231863
1743371089843,17:44:49.843,70,-1,1534.06593406593,1.38905538905539,32.940767231863
1743371089863,17:44:49.863,70,-1,1484.98168498168,1.38550338550339,32.940767231863
1743371089882,17:44:49.882,70,-1,1435.89743589744,1.38461538461538,32.940767231863
1743371089902,17:44:49.902,70,-1,1407.32600732601,1.38372738372738,32.940767231863
1743371089921,17:44:49.921,70,-1,1402.1978021978,1.38328338328338,32.940767231863
1743371089941,17:44:49.941,70,-1,1403.663003663,1.37973137973138,32.940767231863
1743371089960,17:44:49.960,70,-1,1407.32600732601,1.37706737706738,32.940767231863
1743371089980,17:44:49.980,70,-1,1419.78021978022,1.37573537573538,32.940767231863
1743371089999,17:44:49.999,70,-1,1421.24542124542,1.37573537573538,32.940767231863
1743371090019,17:44:50.019,70,-1,1417.58241758242,1.37573537573538,32.940767231863
1743371090038,17:44:50.038,70,-1,1380.95238095238,1.37529137529138,32.940767231863
1743371090058,17:44:50.058,70,-1,1335.53113553114,1.37484737484737,32.940767231863
1743371090077,17:44:50.077,70,-1,1301.8315018315,1.37440337440337,32.940767231863
1743371090097,17:44:50.097,70,-1,1273.26007326007,1.37440337440337,32.9307594131678
1743371090116,17:44:50.116,70,-1,1251.28205128205,1.37440337440337,32.9307594131678
1743371090136,17:44:50.136,70,-1,1227.83882783883,1.37262737262737,32.9307594131678
1743371090155,17:44:50.155,70,-1,1219.04761904762,1.37129537129537,32.9307594131678
1743371090175,17:44:50.175,70,-1,1224.17582417582,1.36996336996337,32.9307594131678
1743371090194,17:44:50.194,70,-1,1222.71062271062,1.36907536907537,32.9307594131678
1743371090214,17:44:50.214,70,-1,1217.58241758242,1.36907536907537,32.9307594131678
1743371090233,17:44:50.233,70,-1,1200.7326007326,1.35531135531136,32.9307594131678
1743371090253,17:44:50.253,70,-1,1189.01098901099,1.32511932511932,32.9307594131678
1743371090272,17:44:50.272,70,-1,1172.89377289377,1.29359529359529,32.9307594131678
1743371090292,17:44:50.292,70,-1,1175.09157509158,1.27894327894328,32.9307594131678
1743371090311,17:44:50.311,70,-1,1193.40659340659,1.26739926739927,32.9307594131678
1743371090331,17:44:50.331,70,-1,1239.56043956044,1.25407925407925,32.9307594131678
1743371090350,17:44:50.350,70,-1,1322.34432234432,1.24475524475524,32.9307594131678
1743371090370,17:44:50.370,70,-1,1426.37362637363,1.23720723720724,32.9307594131678
1743371090389,17:44:50.389,67,-1,1535.53113553114,1.23054723054723,32.9307594131678
1743371090409,17:44:50.409,67,-1,1619.04761904762,1.22255522255522,32.9307594131678
1743371090428,17:44:50.428,67,-1,1673.26007326007,1.21101121101121,32.9307594131678
1743371090448,17:44:50.448,67,-1,1723.80952380952,1.2007992007992,32.9307594131678
1743371090467,17:44:50.467,67,-1,1743.58974358974,1.19502719502719,32.9307594131678
1743371090487,17:44:50.487,67,-1,1746.52014652015,1.19103119103119,32.9307594131678
1743371090506,17:44:50.506,67,-1,1728.93772893773,1.18703518703519,32.9307594131678
1743371090526,17:44:50.526,67,-1,1712.08791208791,1.18437118437118,32.9307594131678
1743371090545,17:44:50.545,67,-1,1697.4358974359,1.18303918303918,32.9307594131678
1743371090565,17:44:50.565,67,-1,1664.46886446886,1.18348318348318,32.9307594131678
1743371090584,17:44:50.584,67,-1,1619.78021978022,1.18348318348318,32.9307594131678
1743371090604,17:44:50.604,67,-1,1587.54578754579,1.18348318348318,32.9307594131678
1743371090623,17:44:50.623,67,-1,1556.04395604396,1.18570318570319,32.9307594131678
1743371090643,17:44:50.643,67,-1,1517.94871794872,1.19147519147519,32.9307594131678
1743371090662,17:44:50.662,67,-1,1492.30769230769,1.2030192030192,32.9307594131678
1743371090682,17:44:50.682,67,-1,1479.85347985348,1.22122322122322,32.9307594131678
1743371090701,17:44:50.701,67,-1,1473.26007326007,1.23543123543124,32.9307594131678
1743371090721,17:44:50.721,67,-1,1464.46886446886,1.25896325896326,32.9307594131678
1743371090740,17:44:50.740,67,-1,1433.69963369963,1.27983127983128,32.9307594131678
1743371090760,17:44:50.760,67,-1,1403.663003663,1.29403929403929,32.9307594131678
1743371090779,17:44:50.779,67,-1,1377.28937728938,1.31623931623932,32.9307594131678
1743371090799,17:44:50.799,67,-1,1346.52014652015,1.33311133311133,32.9307594131678
1743371090818,17:44:50.818,67,-1,1329.67032967033,1.34465534465534,32.9307594131678
1743371090838,17:44:50.838,67,-1,1312.08791208791,1.36330336330336,32.9307594131678
1743371090857,17:44:50.857,67,-1,1290.84249084249,1.37085137085137,32.9307594131678
1743371090877,17:44:50.877,67,-1,1282.05128205128,1.37617937617938,32.9307594131678
1743371090896,17:44:50.896,67,-1,1287.91208791209,1.38017538017538,32.9307594131678
1743371090916,17:44:50.916,67,-1,1290.10989010989,1.38372738372738,32.9307594131678
1743371090935,17:44:50.935,67,-1,1261.53846153846,1.39482739482739,32.9307594131678
1743371090955,17:44:50.955,67,-1,1224.90842490842,1.4005994005994,32.9307594131678
1743371090974,17:44:50.974,67,-1,1194.13919413919,1.4014874014874,32.9307594131678
1743371090994,17:44:50.994,67,-1,1182.41758241758,1.4014874014874,32.9307594131678
1743371091013,17:44:51.013,67,-1,1167.76556776557,1.3974913974914,32.9307594131678
1743371091033,17:44:51.033,67,-1,1164.10256410256,1.38461538461538,32.9307594131678
1743371091052,17:44:51.052,67,-1,1161.17216117216,1.37262737262737,32.9307594131678
1743371091072,17:44:51.072,67,-1,1181.68498168498,1.36285936285936,32.9307594131678
1743371091091,17:44:51.091,67,-1,1260.07326007326,1.35442335442335,32.9357633254258
1743371091111,17:44:51.111,67,-1,1380.95238095238,1.34376734376734,32.9357633254258
1743371091130,17:44:51.130,67,-1,1500.3663003663,1.33843933843934,32.9357633254258
1743371091150,17:44:51.150,67,-1,1599.2673992674,1.33710733710734,32.9357633254258
1743371091169,17:44:51.169,67,-1,1673.26007326007,1.33710733710734,32.9357633254258
1743371091189,17:44:51.189,72,-1,1696.7032967033,1.33843933843934,32.9357633254258
1743371091208,17:44:51.208,72,-1,1709.15750915751,1.34509934509935,32.9357633254258
1743371091228,17:44:51.228,72,-1,1698.1684981685,1.35486735486735,32.9357633254258
1743371091247,17:44:51.247,72,-1,1665.93406593407,1.36951936951937,32.9357633254258
1743371091267,17:44:51.267,72,-1,1635.89743589744,1.39038739038739,32.9357633254258
1743371091286,17:44:51.286,72,-1,1619.04761904762,1.41347541347541,32.9357633254258
1743371091306,17:44:51.306,72,-1,1591.94139194139,1.42990342990343,32.9357633254258
1743371091325,17:44:51.325,72,-1,1539.92673992674,1.43656343656344,32.9357633254258
1743371091345,17:44:51.345,72,-1,1483.51648351648,1.44144744144744,32.9357633254258
1743371091364,17:44:51.364,72,-1,1430.76923076923,1.44677544677545,32.9357633254258
1743371091384,17:44:51.384,72,-1,1397.0695970696,1.44677544677545,32.9357633254258
1743371091403,17:44:51.403,72,-1,1371.42857142857,1.44677544677545,32.9357633254258
1743371091423,17:44:51.423,72,-1,1370.69597069597,1.44677544677545,32.9357633254258
1743371091442,17:44:51.442,72,-1,1375.82417582418,1.44677544677545,32.9357633254258
1743371091462,17:44:51.462,72,-1,1381.68498168498,1.4014652014652,32.9357633254258
1743371091481,17:44:51.481,72,-1,1385.34798534799,1.38974358974359,32.9357633254258
1743371091501,17:44:51.501,72,-1,1372.89377289377,1.36630036630037,32.9357633254258
1743371091520,17:44:51.520,72,-1,1356.04395604396,1.36630036630037,32.9357633254258
1743371091540,17:44:51.540,72,-1,1326.73992673993,1.36630036630037,32.9357633254258
1743371091559,17:44:51.559,72,-1,1287.91208791209,1.36630036630037,32.9357633254258
