RawTimestamp,LocalTime,HeartRate,PPG,GSR,Temperature
1743293025894,20:03:45.894,-1,0,37.5959032675451,26.4608428180218
1743293025914,20:03:45.914,-1,0,37.5959032675451,26.4608428180218
1743293025933,20:03:45.933,-1,0,5.33960235452772,26.4608428180218
1743293025953,20:03:45.953,-1,0,5.33960235452772,26.4608428180218
1743293025972,20:03:45.972,-1,0,5.33960235452772,26.4608428180218
1743293025992,20:03:45.992,-1,0,5.33960235452772,26.4608428180218
1743293026011,20:03:46.011,-1,0,5.33960235452772,26.4608428180218
1743293026031,20:03:46.031,-1,0,5.29667777054536,26.4608428180218
1743293026050,20:03:46.050,-1,0,5.29667777054536,26.4608428180218
1743293026070,20:03:46.070,-1,0,5.29667777054536,26.4608428180218
1743293026089,20:03:46.089,-1,0,5.2915725389593,26.4608428180218
1743293026109,20:03:46.109,-1,0,5.2915725389593,26.4608428180218
1743293026128,20:03:46.128,-1,0,5.2915725389593,26.4608428180218
1743293026148,20:03:46.148,-1,0,5.2915725389593,26.4608428180218
1743293026167,20:03:46.167,-1,0,5.28646730737323,26.4608428180218
1743293026187,20:03:46.187,-1,0,5.28646730737323,26.4608428180218
1743293026206,20:03:46.206,-1,0,5.28646730737323,26.4608428180218
1743293026226,20:03:46.226,-1,0,5.28136207578716,26.4608428180218
1743293026245,20:03:46.245,-1,0,5.28136207578716,26.4608428180218
1743293026265,20:03:46.265,-1,0,5.28136207578716,26.4608428180218
1743293026284,20:03:46.284,-1,0,5.28136207578716,26.4608428180218
1743293026304,20:03:46.304,-1,0,5.27625684420109,26.4608428180218
1743293026323,20:03:46.323,-1,0,5.27625684420109,26.4608428180218
1743293026343,20:03:46.343,-1,0,5.27625684420109,26.4608428180218
1743293026362,20:03:46.362,-1,0,5.27115161261503,26.4608428180218
1743293026382,20:03:46.382,-1,0,5.27115161261503,26.4608428180218
1743293026401,20:03:46.401,-1,0,5.26604638102896,26.4608428180218
1743293026421,20:03:46.421,-1,0,5.26604638102896,26.4608428180218
1743293026440,20:03:46.440,-1,0,5.26604638102896,26.4608428180218
1743293026460,20:03:46.460,-1,0,5.26604638102896,26.4608428180218
1743293026479,20:03:46.479,-1,0,5.26604638102896,26.4608428180218
1743293026499,20:03:46.499,-1,0,5.26094114944289,26.4608428180218
1743293026518,20:03:46.518,-1,0,5.26094114944289,26.4608428180218
1743293026538,20:03:46.538,-1,0,5.26094114944289,26.4608428180218
1743293026557,20:03:46.557,-1,0,5.25583591785682,26.4608428180218
1743293026577,20:03:46.577,-1,0,5.25583591785682,26.4608428180218
1743293026596,20:03:46.596,-1,0,5.25583591785682,26.4608428180218
1743293026616,20:03:46.616,-1,0,5.25073068627075,26.4608428180218
1743293026635,20:03:46.635,-1,0,5.25073068627075,26.4608428180218
1743293026655,20:03:46.655,-1,0,5.25073068627075,26.4608428180218
1743293026674,20:03:46.674,-1,0,5.24562545468469,26.4608428180218
1743293026694,20:03:46.694,-1,0,5.24562545468469,26.4608428180218
1743293026713,20:03:46.713,-1,0,5.24562545468469,26.4608428180218
1743293026733,20:03:46.733,-1,0,5.24562545468469,26.4608428180218
1743293026752,20:03:46.752,-1,0,5.24052022309862,26.4608428180218
1743293026772,20:03:46.772,-1,0,5.24052022309862,26.4608428180218
1743293026791,20:03:46.791,-1,0,5.23541499151255,26.4608428180218
1743293026811,20:03:46.811,-1,0,5.23541499151255,33.4461317992536
1743293026830,20:03:46.830,-1,0,5.23541499151255,33.4461317992536
1743293026850,20:03:46.850,-1,0,5.23541499151255,33.4461317992536
1743293026869,20:03:46.869,-1,0,5.23030975992649,33.4461317992536
1743293026889,20:03:46.889,-1,0,5.23030975992649,33.4461317992536
1743293026908,20:03:46.908,-1,0,5.23030975992649,33.4461317992536
1743293026928,20:03:46.928,-1,0,5.23030975992649,33.4461317992536
1743293026947,20:03:46.947,-1,0,5.22520452834042,33.4461317992536
1743293026967,20:03:46.967,-1,0,5.22520452834042,33.4461317992536
1743293026986,20:03:46.986,-1,0,5.22520452834042,33.4461317992536
1743293027006,20:03:47.006,-1,0,5.22520452834042,33.4461317992536
1743293027025,20:03:47.025,-1,0,5.22520452834042,33.4461317992536
1743293027045,20:03:47.045,-1,0,5.22009929675435,33.4461317992536
1743293027064,20:03:47.064,-1,0,5.22009929675435,33.4461317992536
1743293027084,20:03:47.084,-1,0,5.22009929675435,33.4461317992536
1743293027103,20:03:47.103,-1,0,5.21499406516828,33.4461317992536
1743293027123,20:03:47.123,-1,0,5.21499406516828,33.4461317992536
1743293027142,20:03:47.142,-1,0,5.21499406516828,33.4461317992536
1743293027162,20:03:47.162,-1,0,5.20988883358221,33.4461317992536
1743293027181,20:03:47.181,-1,0,5.20478360199614,33.4461317992536
1743293027201,20:03:47.201,-1,0,5.20478360199614,33.4461317992536
1743293027220,20:03:47.220,-1,0,5.19967837041008,33.4461317992536
1743293027240,20:03:47.240,-1,0,5.19457313882401,33.4461317992536
1743293027259,20:03:47.259,-1,0,5.18946790723794,33.4461317992536
1743293027279,20:03:47.279,-1,0,5.18436267565187,33.4461317992536
1743293027298,20:03:47.298,-1,0,5.17925744406581,33.4461317992536
1743293027318,20:03:47.318,-1,0,5.17925744406581,33.4461317992536
1743293027337,20:03:47.337,-1,0,5.17415221247974,33.4461317992536
1743293027357,20:03:47.357,-1,0,5.1639417493076,33.4461317992536
1743293027376,20:03:47.376,-1,0,5.1639417493076,33.4461317992536
1743293027396,20:03:47.396,-1,0,5.15883651772153,33.4461317992536
1743293027415,20:03:47.415,-1,0,5.1486260545494,33.4461317992536
1743293027435,20:03:47.435,-1,0,5.14352082296333,33.4461317992536
1743293027454,20:03:47.454,-1,0,5.13841559137726,33.4461317992536
1743293027474,20:03:47.474,-1,0,5.13331035979119,33.4461317992536
1743293027493,20:03:47.493,-1,0,5.12820512820513,33.4461317992536
1743293027513,20:03:47.513,-1,0,5.12309989661906,33.4461317992536
1743293027532,20:03:47.532,-1,0,5.11288943344692,33.4461317992536
1743293027552,20:03:47.552,-1,0,5.10778420186086,33.4461317992536
1743293027571,20:03:47.571,-1,0,5.09246850710265,33.4461317992536
1743293027591,20:03:47.591,-1,0,5.08225804393052,33.4461317992536
1743293027610,20:03:47.610,-1,0,5.07204758075838,33.4461317992536
1743293027630,20:03:47.630,-1,0,5.06183711758625,33.4461317992536
1743293027649,20:03:47.649,-1,0,5.05162665441411,33.4461317992536
1743293027669,20:03:47.669,-1,0,5.04141619124197,33.4461317992536
1743293027688,20:03:47.688,-1,0,5.03120572806984,33.4461317992536
1743293027708,20:03:47.708,-1,0,5.02610049648377,33.4461317992536
1743293027727,20:03:47.727,-1,0,5.01589003331164,33.4461317992536
1743293027747,20:03:47.747,-1,0,5.0056795701395,33.4461317992536
1743293027766,20:03:47.766,-1,0,4.99546910696736,33.4461317992536
1743293027786,20:03:47.786,-1,0,4.9903638753813,33.4461317992536
1743293027805,20:03:47.805,-1,11.7216117216117,4.98525864379523,33.4711483046412
1743293027825,20:03:47.825,-1,328.937728937729,4.97504818062309,33.4711483046412
1743293027844,20:03:47.844,-1,673.260073260073,4.96994294903702,33.4711483046412
1743293027864,20:03:47.864,-1,934.065934065934,4.95973248586489,33.4711483046412
1743293027883,20:03:47.883,-1,1108.42490842491,4.95462725427882,33.4711483046412
1743293027903,20:03:47.903,-1,1202.9304029304,4.94441679110669,33.4711483046412
1743293027922,20:03:47.922,-1,1239.56043956044,4.93931155952062,33.4711483046412
1743293027942,20:03:47.942,-1,1242.49084249084,4.92910109634848,33.4711483046412
1743293027961,20:03:47.961,-1,1227.83882783883,4.91889063317635,33.4711483046412
1743293027981,20:03:47.981,-1,1200.7326007326,4.90868017000421,33.4711483046412
1743293028000,20:03:48.000,-1,1173.62637362637,4.89336447524601,33.4711483046412
1743293028020,20:03:48.020,-1,1147.98534798535,4.88315401207387,33.4711483046412
1743293028039,20:03:48.039,-1,1120.87912087912,4.8780487804878,33.4711483046412
1743293028059,20:03:48.059,-1,1109.89010989011,4.8780487804878,33.4711483046412
1743293028078,20:03:48.078,-1,1104.0293040293,4.87294354890174,33.4711483046412
1743293028098,20:03:48.098,-1,1090.10989010989,4.87294354890174,33.4711483046412
1743293028117,20:03:48.117,-1,1066.66666666667,4.87294354890174,33.4711483046412
1743293028137,20:03:48.137,-1,1053.47985347985,4.87294354890174,33.4711483046412
1743293028156,20:03:48.156,-1,1043.22344322344,4.87294354890174,33.4711483046412
1743293028176,20:03:48.176,-1,1034.43223443223,4.8780487804878,33.4711483046412
1743293028195,20:03:48.195,-1,1023.44322344322,4.88825924365994,33.4711483046412
1743293028215,20:03:48.215,-1,1019.04761904762,4.89336447524601,33.4711483046412
1743293028234,20:03:48.234,-1,1054.21245421245,4.89846970683208,33.4711483046412
1743293028254,20:03:48.254,-1,1135.53113553114,4.90868017000421,33.4711483046412
1743293028273,20:03:48.273,-1,1243.95604395604,4.91889063317635,33.4711483046412
1743293028293,20:03:48.293,-1,1353.11355311355,4.92910109634848,33.4711483046412
1743293028312,20:03:48.312,-1,1432.96703296703,4.93931155952062,33.4711483046412
1743293028332,20:03:48.332,-1,1481.31868131868,4.94441679110669,33.4711483046412
1743293028351,20:03:48.351,-1,1487.17948717949,4.94952202269275,33.4711483046412
1743293028371,20:03:48.371,-1,1468.86446886447,4.94952202269275,33.4711483046412
1743293028390,20:03:48.390,-1,1443.22344322344,4.95462725427882,33.4711483046412
1743293028410,20:03:48.410,-1,1402.1978021978,4.95973248586489,33.4711483046412
1743293028429,20:03:48.429,-1,1357.50915750916,4.96483771745096,33.4711483046412
1743293028449,20:03:48.449,-1,1331.13553113553,4.96994294903702,33.4711483046412
1743293028468,20:03:48.468,-1,1305.49450549451,4.96994294903702,33.4711483046412
1743293028488,20:03:48.488,-1,1279.85347985348,4.96994294903702,33.4711483046412
1743293028507,20:03:48.507,-1,1257.87545787546,4.97504818062309,33.4711483046412
1743293028527,20:03:48.527,-1,1241.02564102564,4.98525864379523,33.4711483046412
1743293028546,20:03:48.546,-1,1239.56043956044,4.98525864379523,33.4711483046412
1743293028566,20:03:48.566,-1,1230.03663003663,4.9903638753813,33.4711483046412
1743293028585,20:03:48.585,-1,1217.58241758242,4.9903638753813,33.4711483046412
1743293028605,20:03:48.605,-1,1200,5.00057433855343,33.4711483046412
1743293028624,20:03:48.624,-1,1186.81318681319,5.0056795701395,33.4711483046412
1743293028644,20:03:48.644,-1,1180.95238095238,5.01078480172557,33.4711483046412
1743293028663,20:03:48.663,-1,1178.75457875458,5.01589003331164,33.4711483046412
1743293028683,20:03:48.683,-1,1169.96336996337,5.02610049648377,33.4711483046412
1743293028702,20:03:48.702,-1,1150.91575091575,5.03120572806984,33.4711483046412
1743293028722,20:03:48.722,-1,1136.99633699634,5.04141619124197,33.4711483046412
1743293028741,20:03:48.741,-1,1128.20512820513,5.05673188600018,33.4711483046412
1743293028761,20:03:48.761,-1,1103.2967032967,5.06694234917231,33.4711483046412
1743293028780,20:03:48.780,-1,1082.78388278388,5.07715281234445,33.4711483046412
1743293028800,20:03:48.800,-1,1062.27106227106,5.08225804393052,33.4661450152053
1743293028819,20:03:48.819,-1,1043.95604395604,5.08736327551658,33.4661450152053
1743293028839,20:03:48.839,-1,1036.63003663004,5.09757373868872,33.4661450152053
1743293028858,20:03:48.858,-1,1050.54945054945,5.10778420186086,33.4661450152053
1743293028878,20:03:48.878,-1,1088.64468864469,5.11799466503299,33.4661450152053
1743293028897,20:03:48.897,-1,1157.50915750916,5.12820512820513,33.4661450152053
1743293028917,20:03:48.917,-1,1243.95604395604,5.13331035979119,33.4661450152053
1743293028936,20:03:48.936,-1,1333.33333333333,5.15373128613547,33.4661450152053
1743293028956,20:03:48.956,-1,1400.7326007326,5.16904698089367,33.4661450152053
1743293028975,20:03:48.975,-1,1458.60805860806,5.18946790723794,33.4661450152053
1743293028995,20:03:48.995,-1,1492.30769230769,5.21499406516828,33.4661450152053
1743293029014,20:03:49.014,-1,1496.7032967033,5.25073068627075,33.4661450152053
1743293029034,20:03:49.034,-1,1484.24908424908,5.2915725389593,33.4661450152053
1743293029053,20:03:49.053,-1,1464.46886446886,5.34262485481998,33.4661450152053
1743293029073,20:03:49.073,-1,1430.03663003663,5.38857193909459,33.4661450152053
1743293029092,20:03:49.092,-1,1407.32600732601,5.44472948654133,33.4661450152053
1743293029112,20:03:49.112,-1,1376.55677655678,5.49578180240201,33.4661450152053
1743293029131,20:03:49.131,-1,1339.19413919414,5.55193934984876,33.4661450152053
1743293029151,20:03:49.151,-1,1311.35531135531,5.60299166570943,33.4661450152053
1743293029170,20:03:49.170,-1,1295.9706959707,5.64383351839798,33.4661450152053
1743293029190,20:03:49.190,-1,1290.10989010989,5.68978060267259,33.4661450152053
1743293029209,20:03:49.209,-1,1288.64468864469,5.72551722377506,33.4661450152053
1743293029229,20:03:49.229,-1,1288.64468864469,5.76125384487754,33.4661450152053
1743293029248,20:03:49.248,-1,1290.10989010989,5.79699046598001,33.4661450152053
1743293029268,20:03:49.268,-1,1287.91208791209,5.82762185549642,33.4661450152053
1743293029287,20:03:49.287,-1,1284.24908424908,5.86335847659889,33.4661450152053
1743293029307,20:03:49.307,-1,1265.93406593407,5.89909509770137,33.4661450152053
1743293029326,20:03:49.326,-1,1249.08424908425,5.92972648721778,33.4661450152053
1743293029346,20:03:49.346,-1,1221.24542124542,5.97056833990632,33.4661450152053
1743293029365,20:03:49.365,-1,1194.87179487179,6.00630496100879,33.4661450152053
1743293029385,20:03:49.385,-1,1183.15018315018,6.04714681369734,33.4661450152053
1743293029404,20:03:49.404,-1,1175.82417582418,6.08288343479981,33.4661450152053
1743293029424,20:03:49.424,-1,1169.23076923077,6.10840959273015,33.4661450152053
1743293029443,20:03:49.443,-1,1156.04395604396,6.13393575066049,33.4661450152053
1743293029463,20:03:49.463,-1,1142.85714285714,6.15435667700476,33.4661450152053
1743293029482,20:03:49.482,-1,1121.61172161172,6.1798828349351,33.4661450152053
1743293029502,20:03:49.502,-1,1112.08791208791,6.20030376127937,33.4661450152053
1743293029521,20:03:49.521,-1,1106.22710622711,6.22072468762364,33.4661450152053
1743293029541,20:03:49.541,-1,1111.35531135531,6.23604038238185,33.4661450152053
1743293029560,20:03:49.560,-1,1144.32234432234,6.25135607714005,33.4661450152053
1743293029580,20:03:49.580,-1,1218.31501831502,6.26667177189825,33.4661450152053
1743293029599,20:03:49.599,-1,1312.82051282051,6.28198746665646,33.4661450152053
1743293029619,20:03:49.619,-1,1392.67399267399,6.29730316141466,33.4661450152053
1743293029638,20:03:49.638,-1,1468.13186813187,6.31772408775893,33.4661450152053
1743293029658,20:03:49.658,-1,1517.94871794872,6.32793455093107,33.4661450152053
1743293029677,20:03:49.677,-1,1535.53113553114,6.34325024568927,33.4661450152053
1743293029697,20:03:49.697,-1,1543.58974358974,6.35856594044747,33.4661450152053
1743293029716,20:03:49.716,-1,1548.71794871795,6.36877640361961,33.4661450152053
1743293029736,20:03:49.736,-1,1548.71794871795,6.37898686679174,33.4661450152053
1743293029755,20:03:49.755,-1,1531.86813186813,6.38409209837781,33.4661450152053
1743293029775,20:03:49.775,-1,1516.48351648352,6.38919732996388,33.4661450152053
1743293029794,20:03:49.794,-1,1493.04029304029,6.40451302472208,33.4761515882565
1743293029814,20:03:49.814,-1,1448.35164835165,6.40961825630815,33.4761515882565
1743293029833,20:03:49.833,-1,1401.4652014652,6.41982871948029,33.4761515882565
1743293029853,20:03:49.853,-1,1373.62637362637,6.42493395106635,33.4761515882565
1743293029872,20:03:49.872,-1,1356.77655677656,6.43514441423849,33.4761515882565
1743293029892,20:03:49.892,-1,1347.98534798535,6.46067057216883,33.4761515882565
1743293029911,20:03:49.911,-1,1347.98534798535,6.47088103534096,33.4761515882565
1743293029931,20:03:49.931,-1,1347.98534798535,6.4810914985131,33.4761515882565
1743293029950,20:03:49.950,-1,1344.32234432234,6.48619673009917,33.4761515882565
1743293029970,20:03:49.970,-1,1336.26373626374,6.48619673009917,33.4761515882565
1743293029989,20:03:49.989,-1,1317.21611721612,6.48619673009917,33.4761515882565
1743293030009,20:03:50.009,-1,1284.98168498168,6.49130196168524,33.4761515882565
1743293030028,20:03:50.028,-1,1260.80586080586,6.49130196168524,33.4761515882565
1743293030048,20:03:50.048,-1,1245.42124542125,6.49130196168524,33.4761515882565
1743293030067,20:03:50.067,-1,1227.83882783883,6.48619673009917,33.4761515882565
1743293030087,20:03:50.087,-1,1217.58241758242,6.4657758037549,33.4761515882565
1743293030106,20:03:50.106,-1,1220.51282051282,6.45046010899669,33.4761515882565
1743293030126,20:03:50.126,-1,1208.79120879121,6.42493395106635,33.4761515882565
1743293030145,20:03:50.145,-1,1198.5347985348,6.39430256154995,33.4761515882565
1743293030165,20:03:50.165,-1,1190.47619047619,6.3534607088614,33.4761515882565
1743293030184,20:03:50.184,-1,1189.74358974359,6.31261885617286,33.4761515882565
1743293030204,20:03:50.204,-1,1180.95238095238,6.26667177189825,33.4761515882565
1743293030223,20:03:50.223,-1,1158.97435897436,6.23093515079578,33.4761515882565
1743293030243,20:03:50.243,-1,1150.18315018315,6.20030376127937,33.4761515882565
1743293030262,20:03:50.262,-1,1142.85714285714,6.17477760334903,33.4761515882565
1743293030282,20:03:50.282,-1,1133.33333333333,6.14925144541869,33.4761515882565
1743293030301,20:03:50.301,-1,1150.18315018315,6.11862005590229,33.4761515882565
1743293030321,20:03:50.321,-1,1204.3956043956,6.09309389797195,33.4761515882565
1743293030340,20:03:50.340,-1,1275.45787545788,6.07267297162768,33.4761515882565
1743293030360,20:03:50.360,-1,1360.43956043956,6.0522520452834,33.4761515882565
1743293030379,20:03:50.379,-1,1443.22344322344,6.03183111893913,33.4761515882565
1743293030399,20:03:50.399,-1,1507.69230769231,6.01651542418093,33.4761515882565
1743293030418,20:03:50.418,-1,1555.31135531136,6.01141019259486,33.4761515882565
1743293030438,20:03:50.438,-1,1589.74358974359,6.01141019259486,33.4761515882565
1743293030457,20:03:50.457,-1,1609.52380952381,6.00119972942273,33.4761515882565
1743293030477,20:03:50.477,-1,1627.83882783883,5.98588403466452,33.4761515882565
1743293030496,20:03:50.496,-1,1636.63003663004,5.96546310832025,33.4761515882565
1743293030516,20:03:50.516,-1,1630.76923076923,5.95014741356205,33.4761515882565
1743293030535,20:03:50.535,-1,1606.59340659341,5.91951602404564,33.4761515882565
1743293030555,20:03:50.555,-1,1574.35897435897,5.8939898661153,33.4761515882565
1743293030574,20:03:50.574,-1,1534.79853479853,5.86335847659889,33.4761515882565
1743293030594,20:03:50.594,-1,1497.4358974359,5.84293755025462,33.4761515882565
1743293030613,20:03:50.613,-1,1478.38827838828,5.81230616073822,33.4761515882565
1743293030633,20:03:50.633,-1,1457.14285714286,5.78678000280788,33.4761515882565
1743293030652,20:03:50.652,-1,1444.68864468864,5.75614861329147,33.4761515882565
1743293030672,20:03:50.672,-1,1427.10622710623,5.72551722377506,33.4761515882565
1743293030691,20:03:50.691,-1,1413.18681318681,5.68978060267259,33.4761515882565
1743293030711,20:03:50.711,-1,1401.4652014652,5.65404398157011,33.4761515882565
1743293030730,20:03:50.730,-1,1378.02197802198,5.61830736046764,33.4761515882565
1743293030750,20:03:50.750,-1,1340.65934065934,5.58257073936516,33.4761515882565
1743293030769,20:03:50.769,-1,1309.15750915751,5.55193934984876,33.4761515882565
1743293030789,20:03:50.789,-1,1294.50549450549,5.52130796033235,33.4811548660509
1743293030808,20:03:50.808,-1,1289.37728937729,5.48046610764381,33.4811548660509
1743293030828,20:03:50.828,-1,1291.57509157509,5.43962425495527,33.4811548660509
1743293030847,20:03:50.847,-1,1287.91208791209,5.39367717068065,33.4811548660509
1743293030867,20:03:50.867,-1,1282.78388278388,5.36304578116425,33.4811548660509
1743293030886,20:03:50.886,-1,1262.27106227106,5.32220392847571,33.4811548660509
1743293030906,20:03:50.906,-1,1249.08424908425,5.28646730737323,33.4811548660509
1743293030925,20:03:50.925,-1,1244.68864468864,5.24052022309862,33.4811548660509
1743293030945,20:03:50.945,-1,1244.68864468864,5.17415221247974,33.4811548660509
1743293030964,20:03:50.964,-1,1239.56043956044,5.10267897027479,33.4811548660509
1743293030984,20:03:50.984,-1,1221.24542124542,5.04652142282804,33.4811548660509
1743293031003,20:03:51.003,-1,1201.4652014652,4.98525864379523,33.4811548660509
1743293031023,20:03:51.023,-1,1208.79120879121,4.91889063317635,33.4811548660509
1743293031042,20:03:51.042,-1,1210.25641025641,4.8474173909714,33.4811548660509
1743293031062,20:03:51.062,-1,1209.52380952381,4.78615461193858,33.4811548660509
1743293031081,20:03:51.081,-1,1210.25641025641,4.75552322242218,33.4811548660509
1743293031101,20:03:51.101,-1,1208.79120879121,4.75041799083611,33.4811548660509
1743293031120,20:03:51.120,-1,1213.18681318681,4.75041799083611,33.4811548660509
1743293031140,20:03:51.140,-1,1257.87545787546,4.77083891718038,33.4811548660509
1743293031159,20:03:51.159,-1,1328.93772893773,4.78104938035252,33.4811548660509
1743293031179,20:03:51.179,-1,1415.38461538462,4.77594414876645,33.4811548660509
1743293031198,20:03:51.198,-1,1503.2967032967,4.77594414876645,33.4811548660509
1743293031218,20:03:51.218,-1,1581.68498168498,4.77594414876645,33.4811548660509
1743293031237,20:03:51.237,-1,1637.36263736264,4.77083891718038,33.4811548660509
1743293031257,20:03:51.257,-1,1670.32967032967,4.77594414876645,33.4811548660509
1743293031276,20:03:51.276,-1,1685.71428571429,4.79636507511072,33.4811548660509
1743293031296,20:03:51.296,-1,1676.92307692308,4.80657553828285,33.4811548660509
1743293031315,20:03:51.315,-1,1671.79487179487,4.82189123304106,33.4811548660509
1743293031335,20:03:51.335,-1,1665.93406593407,4.8627330857296,33.4811548660509
1743293031354,20:03:51.354,-1,1664.46886446886,4.90868017000421,33.4811548660509
1743293031374,20:03:51.374,-1,1649.08424908425,4.93420632793455,33.4811548660509
1743293031393,20:03:51.393,-1,1613.18681318681,4.98015341220916,33.4811548660509
1743293031413,20:03:51.413,-1,1572.89377289377,5.0209952648977,33.4811548660509
1743293031432,20:03:51.432,-1,1523.80952380952,5.07715281234445,33.4811548660509
1743293031452,20:03:51.452,-1,1489.37728937729,5.11799466503299,33.4811548660509
1743293031471,20:03:51.471,-1,1466.66666666667,5.16904698089367,33.4811548660509
1743293031491,20:03:51.491,-1,1458.60805860806,5.21499406516828,33.4811548660509
1743293031510,20:03:51.510,-1,1452.01465201465,5.24562545468469,33.4811548660509
1743293031530,20:03:51.530,-1,1439.56043956044,5.27115161261503,33.4811548660509
1743293031549,20:03:51.549,-1,1426.37362637363,5.3068882337175,33.4811548660509
1743293031569,20:03:51.569,-1,1415.38461538462,5.34262485481998,33.4811548660509
1743293031588,20:03:51.588,-1,1394.13919413919,5.37325624433638,33.4811548660509
1743293031608,20:03:51.608,-1,1361.17216117216,5.41409809702493,33.4811548660509
1743293031627,20:03:51.627,-1,1330.40293040293,5.43962425495527,33.4811548660509
1743293031647,20:03:51.647,-1,1305.49450549451,5.46515041288561,33.4811548660509
1743293031666,20:03:51.666,-1,1295.9706959707,5.49578180240201,33.4811548660509
1743293031686,20:03:51.686,-1,1284.98168498168,5.51109749716022,33.4811548660509
1743293031705,20:03:51.705,-1,1284.98168498168,5.51109749716022,33.4811548660509
1743293031725,20:03:51.725,-1,1265.93406593407,5.53151842350448,33.4811548660509
1743293031744,20:03:51.744,-1,1260.80586080586,5.54172888667662,33.4811548660509
1743293031764,20:03:51.764,-1,1249.08424908425,5.55193934984876,33.4811548660509
1743293031783,20:03:51.783,-1,1230.76923076923,5.55193934984876,33.4911614041775
1743293031803,20:03:51.803,-1,1227.83882783883,5.56214981302089,33.4911614041775
1743293031822,20:03:51.822,-1,1231.50183150183,5.56214981302089,33.4911614041775
1743293031842,20:03:51.842,-1,1219.78021978022,5.56214981302089,33.4911614041775
1743293031861,20:03:51.861,-1,1205.12820512821,5.56214981302089,33.4911614041775
1743293031881,20:03:51.881,-1,1198.5347985348,5.56214981302089,33.4911614041775
1743293031900,20:03:51.900,-1,1205.12820512821,5.56725504460696,33.4911614041775
1743293031920,20:03:51.920,-1,1204.3956043956,5.56725504460696,33.4911614041775
1743293031939,20:03:51.939,-1,1202.1978021978,5.56725504460696,33.4911614041775
1743293031959,20:03:51.959,-1,1221.97802197802,5.57236027619303,33.4911614041775
1743293031978,20:03:51.978,-1,1276.19047619048,5.5774655077791,33.4911614041775
1743293031998,20:03:51.998,-1,1358.97435897436,5.58257073936516,33.4911614041775
1743293032017,20:03:52.017,-1,1452.74725274725,5.5927812025373,33.4911614041775
1743293032037,20:03:52.037,-1,1536.99633699634,5.60299166570943,33.4911614041775
1743293032056,20:03:52.056,-1,1594.87179487179,5.6080968972955,33.4911614041775
1743293032076,20:03:52.076,-1,1649.81684981685,5.61830736046764,33.4911614041775
1743293032095,20:03:52.095,-1,1684.98168498168,5.62341259205371,33.4911614041775
1743293032115,20:03:52.115,-1,1697.4358974359,5.62851782363977,33.4911614041775
1743293032134,20:03:52.134,-1,1696.7032967033,5.63362305522584,33.4911614041775
1743293032154,20:03:52.154,-1,1690.84249084249,5.63872828681191,33.4911614041775
1743293032173,20:03:52.173,-1,1671.06227106227,5.64383351839798,33.4911614041775
1743293032193,20:03:52.193,-1,1632.23443223443,5.64893874998404,33.4911614041775
1743293032212,20:03:52.212,-1,1581.68498168498,5.65914921315618,33.4911614041775
1743293032232,20:03:52.232,-1,1527.47252747253,5.66425444474225,33.4911614041775
1743293032251,20:03:52.251,-1,1490.10989010989,5.67446490791438,33.4911614041775
1743293032271,20:03:52.271,-1,1464.46886446886,5.68467537108652,33.4911614041775
1743293032290,20:03:52.290,-1,1458.60805860806,5.68978060267259,33.4911614041775
1743293032310,20:03:52.310,-1,1467.39926739927,5.68978060267259,33.4911614041775
1743293032329,20:03:52.329,-1,1475.45787545788,5.69488583425865,33.4911614041775
1743293032349,20:03:52.349,-1,1464.46886446886,5.69999106584472,33.4911614041775
1743293032368,20:03:52.368,-1,1452.01465201465,5.69999106584472,33.4911614041775
1743293032388,20:03:52.388,-1,1434.43223443223,5.69999106584472,33.4911614041775
1743293032407,20:03:52.407,-1,1405.86080586081,5.69999106584472,33.4911614041775
1743293032427,20:03:52.427,-1,1383.15018315018,5.69999106584472,33.4911614041775
1743293032446,20:03:52.446,-1,1369.96336996337,5.69999106584472,33.4911614041775
1743293032466,20:03:52.466,-1,1341.39194139194,5.70509629743079,33.4911614041775
1743293032485,20:03:52.485,-1,1315.75091575092,5.69488583425865,33.4911614041775
1743293032505,20:03:52.505,-1,1293.77289377289,5.68978060267259,33.4911614041775
1743293032524,20:03:52.524,-1,1287.17948717949,5.68467537108652,33.4911614041775
1743293032544,20:03:52.544,-1,1269.59706959707,5.67446490791438,33.4911614041775
1743293032563,20:03:52.563,-1,1247.61904761905,5.66425444474225,33.4911614041775
1743293032583,20:03:52.583,-1,1232.96703296703,5.65914921315618,33.4911614041775
1743293032602,20:03:52.602,-1,1233.69963369963,5.65404398157011,33.4911614041775
1743293032622,20:03:52.622,-1,1238.82783882784,5.64893874998404,33.4911614041775
1743293032641,20:03:52.641,-1,1236.63003663004,5.64383351839798,33.4911614041775
1743293032661,20:03:52.661,-1,1223.44322344322,5.63872828681191,33.4911614041775
1743293032680,20:03:52.680,-1,1202.9304029304,5.63872828681191,33.4911614041775
1743293032700,20:03:52.700,-1,1196.336996337,5.63872828681191,33.4911614041775
1743293032719,20:03:52.719,-1,1216.11721611722,5.63872828681191,33.4911614041775
1743293032739,20:03:52.739,-1,1265.93406593407,5.63362305522584,33.4911614041775
1743293032758,20:03:52.758,-1,1355.31135531136,5.62851782363977,33.4911614041775
1743293032778,20:03:52.778,-1,1473.26007326007,5.62341259205371,33.4861581380246
1743293032797,20:03:52.797,-1,1575.09157509157,5.61830736046764,33.4861581380246
1743293032817,20:03:52.817,-1,1638.09523809524,5.6080968972955,33.4861581380246
1743293032836,20:03:52.836,-1,1680.58608058608,5.6080968972955,33.4861581380246
1743293032856,20:03:52.856,-1,1706.95970695971,5.60299166570943,33.4861581380246
1743293032875,20:03:52.875,-1,1709.15750915751,5.59788643412337,33.4861581380246
1743293032895,20:03:52.895,-1,1701.8315018315,5.5927812025373,33.4861581380246
1743293032914,20:03:52.914,-1,1698.9010989011,5.58257073936516,33.4861581380246
1743293032934,20:03:52.934,-1,1681.31868131868,5.5774655077791,33.4861581380246
1743293032953,20:03:52.953,-1,1642.49084249084,5.56725504460696,33.4861581380246
1743293032973,20:03:52.973,-1,1602.9304029304,5.55704458143483,33.4861581380246
1743293032992,20:03:52.992,-1,1561.90476190476,5.54683411826269,33.4861581380246
1743293033012,20:03:53.012,-1,1523.80952380952,5.53151842350448,33.4861581380246
1743293033031,20:03:53.031,-1,1495.9706959707,5.52130796033235,33.4861581380246
1743293033051,20:03:53.051,-1,1474.72527472527,5.51620272874628,33.4861581380246
1743293033070,20:03:53.070,-1,1454.21245421245,5.50599226557415,33.4861581380246
1743293033090,20:03:53.090,-1,1436.63003663004,5.49578180240201,33.4861581380246
1743293033109,20:03:53.109,-1,1421.97802197802,5.48557133922987,33.4861581380246
1743293033129,20:03:53.129,-1,1421.24542124542,5.47536087605774,33.4861581380246
1743293033148,20:03:53.148,-1,1409.52380952381,5.46515041288561,33.4861581380246
1743293033168,20:03:53.168,-1,1404.3956043956,5.45493994971347,33.4861581380246
1743293033187,20:03:53.187,-1,1389.74358974359,5.4498347181274,33.4861581380246
1743293033207,20:03:53.207,-1,1366.30036630037,5.43962425495527,33.4861581380246
1743293033226,20:03:53.226,-1,1348.71794871795,5.42941379178313,33.4861581380246
1743293033246,20:03:53.246,-1,1319.41391941392,5.42430856019706,33.4861581380246
1743293033265,20:03:53.265,-1,1294.50549450549,5.41920332861099,33.4861581380246
1743293033285,20:03:53.285,-1,1278.38827838828,5.40899286543886,33.4861581380246
1743293033304,20:03:53.304,-1,1259.34065934066,5.40388763385279,33.4861581380246
1743293033324,20:03:53.324,-1,1243.95604395604,5.39878240226672,33.4861581380246
1743293033343,20:03:53.343,-1,1238.82783882784,5.39367717068065,33.4861581380246
1743293033363,20:03:53.363,-1,1232.96703296703,5.38346670750852,33.4861581380246
1743293033382,20:03:53.382,-1,1230.76923076923,5.37836147592245,33.4861581380246
1743293033402,20:03:53.402,-1,1223.44322344322,5.37325624433638,33.4861581380246
1743293033421,20:03:53.421,-1,1209.52380952381,5.36815101275032,33.4861581380246
1743293033441,20:03:53.441,-1,1190.47619047619,5.35794054957818,33.4861581380246
1743293033460,20:03:53.460,-1,1183.15018315018,5.35283531799211,33.4861581380246
1743293033480,20:03:53.480,-1,1180.21978021978,5.34773008640604,33.4861581380246
1743293033499,20:03:53.499,-1,1188.27838827839,5.34262485481998,33.4861581380246
1743293033519,20:03:53.519,-1,1210.98901098901,5.33751962323391,33.4861581380246
1743293033538,20:03:53.538,-1,1273.26007326007,5.32730916006177,33.4861581380246
1743293033558,20:03:53.558,-1,1365.56776556777,5.32220392847571,33.4861581380246
1743293033577,20:03:53.577,-1,1482.78388278388,5.31199346530357,33.4861581380246
1743293033597,20:03:53.597,-1,1602.1978021978,5.3068882337175,33.4861581380246
1743293033616,20:03:53.616,-1,1687.91208791209,5.30178300213143,33.4861581380246
1743293033636,20:03:53.636,-1,1758.97435897436,5.29667777054536,33.4861581380246
1743293033655,20:03:53.655,-1,1802.9304029304,5.2915725389593,33.4861581380246
1743293033675,20:03:53.675,-1,1814.65201465201,5.28136207578716,33.4861581380246
1743293033694,20:03:53.694,-1,1814.65201465201,5.27625684420109,33.4861581380246
1743293033714,20:03:53.714,-1,1808.79120879121,5.26604638102896,33.4861581380246
1743293033733,20:03:53.733,-1,1797.8021978022,5.26094114944289,33.4861581380246
1743293033753,20:03:53.753,-1,1763.36996336996,5.25073068627075,33.4861581380246
1743293033772,20:03:53.772,-1,1709.89010989011,5.24562545468469,33.4861581380246
1743293033792,20:03:53.792,-1,1648.35164835165,5.24052022309862,33.4861581380246
1743293033811,20:03:53.811,-1,1604.3956043956,5.23541499151255,33.4861581380246
1743293033831,20:03:53.831,-1,1575.09157509157,5.23030975992649,33.4861581380246
1743293033850,20:03:53.850,-1,1543.58974358974,5.22520452834042,33.4861581380246
1743293033870,20:03:53.870,-1,1520.14652014652,5.22520452834042,33.4861581380246
1743293033889,20:03:53.889,-1,1507.69230769231,5.21499406516828,33.4861581380246
1743293033909,20:03:53.909,-1,1497.4358974359,5.20988883358221,33.4861581380246
1743293033928,20:03:53.928,-1,1478.38827838828,5.20988883358221,33.4861581380246
1743293033948,20:03:53.948,-1,1453.47985347985,5.20478360199614,33.4861581380246
1743293033967,20:03:53.967,-1,1421.24542124542,5.19967837041008,33.4861581380246
1743293033987,20:03:53.987,-1,1387.54578754579,5.19457313882401,33.4861581380246
1743293034006,20:03:54.006,-1,1360.43956043956,5.18946790723794,33.4861581380246
1743293034026,20:03:54.026,-1,1345.05494505494,5.18436267565187,33.4861581380246
1743293034045,20:03:54.045,-1,1317.21611721612,5.17925744406581,33.4861581380246
1743293034065,20:03:54.065,-1,1288.64468864469,5.17925744406581,33.4861581380246
1743293034084,20:03:54.084,-1,1276.19047619048,5.17415221247974,33.4861581380246
1743293034104,20:03:54.104,-1,1266.66666666667,5.16904698089367,33.4861581380246
1743293034123,20:03:54.123,-1,1257.14285714286,5.16904698089367,33.4861581380246
1743293034143,20:03:54.143,-1,1244.68864468864,5.1639417493076,33.4861581380246
1743293034162,20:03:54.162,-1,1224.90842490842,5.17415221247974,33.4861581380246
1743293034182,20:03:54.182,-1,1197.0695970696,5.18946790723794,33.4861581380246
1743293034202,20:03:54.201,-1,1186.08058608059,5.18436267565187,33.4861581380246
1743293034221,20:03:54.221,-1,1187.54578754579,5.18436267565187,33.4861581380246
1743293034241,20:03:54.240,-1,1196.336996337,5.17925744406581,33.4861581380246
1743293034260,20:03:54.260,-1,1201.4652014652,5.17415221247974,33.4861581380246
1743293034280,20:03:54.279,-1,1189.01098901099,5.16904698089367,33.4861581380246
1743293034299,20:03:54.299,-1,1172.89377289377,5.1639417493076,33.4861581380246
1743293034319,20:03:54.319,-1,1159.70695970696,5.1639417493076,33.4861581380246
1743293034338,20:03:54.338,-1,1152.38095238095,5.15883651772153,33.4861581380246
1743293034358,20:03:54.358,-1,1152.38095238095,5.15373128613547,33.4861581380246
1743293034377,20:03:54.377,-1,1171.42857142857,5.1486260545494,33.4861581380246
1743293034397,20:03:54.397,-1,1226.37362637363,5.14352082296333,33.4861581380246
1743293034416,20:03:54.416,-1,1319.41391941392,5.14352082296333,33.4861581380246
1743293034436,20:03:54.436,-1,1444.68864468864,5.13331035979119,33.4861581380246
1743293034455,20:03:54.455,-1,1572.89377289377,5.13331035979119,33.4861581380246
1743293034475,20:03:54.475,-1,1671.06227106227,5.12820512820513,33.4861581380246
1743293034494,20:03:54.494,-1,1748.71794871795,5.11799466503299,33.4861581380246
1743293034514,20:03:54.514,-1,1793.40659340659,5.11799466503299,33.4861581380246
1743293034533,20:03:54.533,-1,1815.38461538462,5.11288943344692,33.4861581380246
1743293034553,20:03:54.553,-1,1808.79120879121,5.10778420186086,33.4861581380246
1743293034572,20:03:54.572,-1,1796.336996337,5.10267897027479,33.4861581380246
1743293034592,20:03:54.592,-1,1780.95238095238,5.09757373868872,33.4861581380246
1743293034611,20:03:54.611,-1,1748.71794871795,5.09757373868872,33.4861581380246
1743293034631,20:03:54.631,-1,1695.2380952381,5.09246850710265,33.4861581380246
1743293034650,20:03:54.650,-1,1636.63003663004,5.08736327551658,33.4861581380246
1743293034670,20:03:54.670,-1,1572.89377289377,5.08225804393052,33.4861581380246
1743293034689,20:03:54.689,-1,1524.54212454212,5.08225804393052,33.4861581380246
1743293034709,20:03:54.709,-1,1490.10989010989,5.07715281234445,33.4861581380246
1743293034728,20:03:54.728,-1,1472.52747252747,5.07204758075838,33.4861581380246
1743293034748,20:03:54.748,-1,1451.28205128205,5.06694234917231,33.4861581380246
1743293034767,20:03:54.767,-1,1432.23443223443,5.06183711758625,33.4961646645097
1743293034787,20:03:54.787,-1,1410.25641025641,5.06183711758625,33.4961646645097
1743293034806,20:03:54.806,-1,1400,5.05673188600018,33.4961646645097
1743293034826,20:03:54.826,-1,1386.81318681319,5.05673188600018,33.4961646645097
1743293034845,20:03:54.845,-1,1368.49816849817,5.05162665441411,33.4961646645097
1743293034865,20:03:54.865,-1,1347.25274725275,5.05162665441411,33.4961646645097
1743293034884,20:03:54.884,-1,1312.82051282051,5.05162665441411,33.4961646645097
1743293034904,20:03:54.904,-1,1279.12087912088,5.04652142282804,33.4961646645097
1743293034923,20:03:54.923,-1,1252.74725274725,5.04141619124197,33.4961646645097
1743293034943,20:03:54.943,-1,1239.56043956044,5.04141619124197,33.4961646645097
1743293034962,20:03:54.962,-1,1232.23443223443,5.04141619124197,33.4961646645097
1743293034982,20:03:54.982,-1,1214.65201465201,5.03631095965591,33.4961646645097
1743293035001,20:03:55.001,-1,1197.8021978022,5.03631095965591,33.4961646645097
1743293035021,20:03:55.021,-1,1193.40659340659,5.03631095965591,33.4961646645097
1743293035040,20:03:55.040,-1,1186.08058608059,5.03120572806984,33.4961646645097
1743293035060,20:03:55.060,-1,1170.69597069597,5.02610049648377,33.4961646645097
1743293035079,20:03:55.079,-1,1155.31135531136,5.0209952648977,33.4961646645097
1743293035099,20:03:55.099,-1,1140.65934065934,5.0209952648977,33.4961646645097
1743293035118,20:03:55.118,-1,1131.86813186813,5.01589003331164,33.4961646645097
1743293035138,20:03:55.138,-1,1139.92673992674,5.01589003331164,33.4961646645097
1743293035157,20:03:55.157,-1,1158.24175824176,5.01589003331164,33.4961646645097
1743293035177,20:03:55.177,-1,1159.70695970696,5.01589003331164,33.4961646645097
1743293035196,20:03:55.196,-1,1135.53113553114,5.01078480172557,33.4961646645097
1743293035216,20:03:55.216,-1,1123.07692307692,5.01078480172557,33.4961646645097
1743293035235,20:03:55.235,-1,1128.20512820513,5.0056795701395,33.4961646645097
1743293035255,20:03:55.255,-1,1131.86813186813,5.0056795701395,33.4961646645097
1743293035274,20:03:55.274,-1,1171.42857142857,5.0056795701395,33.4961646645097
1743293035294,20:03:55.294,-1,1249.81684981685,5.00057433855343,33.4961646645097
1743293035313,20:03:55.313,-1,1357.50915750916,5.00057433855343,33.4961646645097
1743293035333,20:03:55.333,-1,1463.73626373626,5.00057433855343,33.4961646645097
1743293035352,20:03:55.352,-1,1550.18315018315,5.00057433855343,33.4961646645097
1743293035372,20:03:55.372,-1,1616.84981684982,4.99546910696736,33.4961646645097
1743293035391,20:03:55.391,-1,1661.53846153846,4.99546910696736,33.4961646645097
1743293035411,20:03:55.411,-1,1683.51648351648,4.9903638753813,33.4961646645097
1743293035430,20:03:55.430,-1,1690.10989010989,4.9903638753813,33.4961646645097
1743293035450,20:03:55.450,-1,1674.72527472527,4.9903638753813,33.4961646645097
1743293035469,20:03:55.469,-1,1643.22344322344,4.9903638753813,33.4961646645097
1743293035489,20:03:55.489,-1,1615.38461538462,4.9903638753813,33.4961646645097
1743293035508,20:03:55.508,-1,1584.61538461538,4.9903638753813,33.4961646645097
1743293035528,20:03:55.528,-1,1536.99633699634,4.98525864379523,33.4961646645097
1743293035547,20:03:55.547,-1,1495.2380952381,4.98525864379523,33.4961646645097
1743293035567,20:03:55.567,-1,1465.93406593407,4.98525864379523,33.4961646645097
1743293035586,20:03:55.586,-1,1433.69963369963,4.98015341220916,33.4961646645097
1743293035606,20:03:55.606,-1,1404.3956043956,4.97504818062309,33.4961646645097
1743293035625,20:03:55.625,-1,1396.336996337,4.97504818062309,33.4961646645097
1743293035645,20:03:55.645,-1,1379.48717948718,4.97504818062309,33.4961646645097
1743293035664,20:03:55.664,-1,1371.42857142857,4.96994294903702,33.4961646645097
1743293035684,20:03:55.684,-1,1365.56776556777,4.96994294903702,33.4961646645097
1743293035703,20:03:55.703,-1,1354.57875457875,4.96483771745096,33.4961646645097
1743293035723,20:03:55.723,-1,1330.40293040293,4.96483771745096,33.4961646645097
1743293035742,20:03:55.742,-1,1299.6336996337,4.95973248586489,33.4961646645097
1743293035762,20:03:55.762,-1,1272.52747252747,4.95973248586489,33.4961646645097
1743293035781,20:03:55.781,-1,1263.00366300366,4.95973248586489,33.4961646645097
1743293035801,20:03:55.801,-1,1251.28205128205,4.95462725427882,33.4961646645097
1743293035820,20:03:55.820,-1,1226.37362637363,4.95462725427882,33.4961646645097
1743293035840,20:03:55.840,-1,1216.11721611722,4.94952202269275,33.4961646645097
1743293035859,20:03:55.859,-1,1206.59340659341,4.94952202269275,33.4961646645097
1743293035879,20:03:55.879,-1,1204.3956043956,4.94952202269275,33.4961646645097
1743293035898,20:03:55.898,-1,1197.0695970696,4.94441679110669,33.4961646645097
1743293035918,20:03:55.918,-1,1184.61538461538,4.94441679110669,33.4961646645097
1743293035937,20:03:55.937,-1,1169.23076923077,4.94441679110669,33.4961646645097
1743293035957,20:03:55.957,-1,1157.50915750916,4.94441679110669,33.4961646645097
1743293035976,20:03:55.976,-1,1156.04395604396,4.94441679110669,33.4961646645097
1743293035996,20:03:55.996,-1,1154.57875457875,4.94952202269275,33.4961646645097
1743293036015,20:03:56.015,-1,1152.38095238095,4.94441679110669,33.4961646645097
1743293036035,20:03:56.035,-1,1147.25274725275,4.94441679110669,33.4961646645097
1743293036054,20:03:56.054,-1,1142.12454212454,4.94441679110669,33.4961646645097
1743293036074,20:03:56.074,-1,1134.06593406593,4.94441679110669,33.4961646645097
1743293036093,20:03:56.093,-1,1121.61172161172,4.94441679110669,33.4961646645097
1743293036113,20:03:56.113,-1,1105.49450549451,4.94441679110669,33.4961646645097
1743293036132,20:03:56.132,-1,1100.3663003663,4.94441679110669,33.4961646645097
1743293036152,20:03:56.152,-1,1112.08791208791,4.94441679110669,33.4961646645097
1743293036171,20:03:56.171,-1,1150.18315018315,4.93931155952062,33.4961646645097
1743293036191,20:03:56.191,-1,1210.98901098901,4.93931155952062,33.4961646645097
1743293036210,20:03:56.210,-1,1309.89010989011,4.93931155952062,33.4961646645097
1743293036230,20:03:56.230,-1,1391.94139194139,4.93420632793455,33.4961646645097
1743293036249,20:03:56.249,-1,1457.87545787546,4.93420632793455,33.4961646645097
1743293036269,20:03:56.269,-1,1509.15750915751,4.92910109634848,33.4961646645097
1743293036288,20:03:56.288,-1,1540.65934065934,4.92910109634848,33.4961646645097
1743293036308,20:03:56.308,-1,1553.11355311355,4.92910109634848,33.4961646645097
1743293036327,20:03:56.327,-1,1561.90476190476,4.92399586476242,33.4961646645097
1743293036347,20:03:56.347,-1,1558.24175824176,4.92399586476242,33.4961646645097
1743293036366,20:03:56.366,-1,1539.92673992674,4.92399586476242,33.4961646645097
1743293036386,20:03:56.386,-1,1513.55311355311,4.91889063317635,33.4961646645097
1743293036405,20:03:56.405,-1,1475.45787545788,4.91889063317635,33.4961646645097
1743293036425,20:03:56.425,-1,1433.69963369963,4.91889063317635,33.4961646645097
1743293036444,20:03:56.444,-1,1389.74358974359,4.91378540159028,33.4961646645097
1743293036464,20:03:56.464,-1,1370.69597069597,4.91378540159028,33.4961646645097
1743293036483,20:03:56.483,-1,1355.31135531136,4.91378540159028,33.4961646645097
1743293036503,20:03:56.503,-1,1350.18315018315,4.91378540159028,33.4961646645097
1743293036522,20:03:56.522,-1,1337.72893772894,4.90868017000421,33.4961646645097
1743293036542,20:03:56.542,-1,1327.47252747253,4.90868017000421,33.4961646645097
1743293036561,20:03:56.561,-1,1319.41391941392,4.90868017000421,33.4961646645097
1743293036581,20:03:56.581,-1,1309.89010989011,4.90868017000421,33.4961646645097
1743293036600,20:03:56.600,-1,1302.5641025641,4.90868017000421,33.4961646645097
1743293036620,20:03:56.620,-1,1296.7032967033,4.90868017000421,33.4961646645097
1743293036639,20:03:56.639,-1,1280.58608058608,4.90868017000421,33.4961646645097
1743293036659,20:03:56.659,-1,1252.74725274725,4.90868017000421,33.4961646645097
1743293036678,20:03:56.678,-1,1227.10622710623,4.90357493841814,33.4961646645097
1743293036698,20:03:56.698,-1,1208.79120879121,4.90868017000421,33.4961646645097
1743293036717,20:03:56.717,-1,1207.32600732601,4.90868017000421,33.4961646645097
1743293036737,20:03:56.737,-1,1208.79120879121,4.90868017000421,33.4961646645097
1743293036756,20:03:56.756,-1,1210.98901098901,4.90868017000421,33.4961646645097
1743293036776,20:03:56.776,-1,1211.72161172161,4.90868017000421,33.4961646645097
1743293036795,20:03:56.795,-1,1191.94139194139,4.90868017000421,33.4961646645097
1743293036815,20:03:56.815,-1,1168.49816849817,4.91378540159028,33.4961646645097
1743293036834,20:03:56.834,-1,1153.84615384615,4.90868017000421,33.4961646645097
1743293036854,20:03:56.854,-1,1150.18315018315,4.91378540159028,33.4961646645097
1743293036873,20:03:56.873,-1,1150.18315018315,4.91378540159028,33.4961646645097
1743293036893,20:03:56.893,-1,1152.38095238095,4.91889063317635,33.4961646645097
1743293036912,20:03:56.912,-1,1162.63736263736,4.92399586476242,33.4961646645097
1743293036932,20:03:56.932,-1,1166.30036630037,4.92910109634848,33.4961646645097
1743293036951,20:03:56.951,-1,1156.04395604396,4.93420632793455,33.4961646645097
1743293036971,20:03:56.971,-1,1141.39194139194,4.93931155952062,33.4961646645097
1743293036990,20:03:56.990,-1,1139.92673992674,4.94441679110669,33.4961646645097
1743293037010,20:03:57.010,-1,1169.96336996337,4.95462725427882,33.4961646645097
1743293037029,20:03:57.029,-1,1241.02564102564,4.95973248586489,33.4961646645097
1743293037049,20:03:57.049,-1,1316.48351648352,4.96994294903702,33.4961646645097
1743293037068,20:03:57.068,-1,1394.87179487179,4.98015341220916,33.4961646645097
1743293037088,20:03:57.088,-1,1461.53846153846,4.9903638753813,33.4961646645097
1743293037107,20:03:57.107,-1,1511.35531135531,4.99546910696736,33.4961646645097
1743293037127,20:03:57.127,-1,1541.39194139194,5.0056795701395,33.4961646645097
1743293037146,20:03:57.146,-1,1553.84615384615,5.0209952648977,33.4961646645097
1743293037166,20:03:57.166,-1,1545.78754578755,5.03120572806984,33.4961646645097
1743293037185,20:03:57.185,-1,1528.93772893773,5.04141619124197,33.4961646645097
1743293037205,20:03:57.205,-1,1505.49450549451,5.05162665441411,33.4961646645097
1743293037224,20:03:57.224,-1,1491.57509157509,5.06694234917231,33.4961646645097
1743293037244,20:03:57.244,-1,1474.72527472527,5.07715281234445,33.4961646645097
1743293037263,20:03:57.263,-1,1456.41025641026,5.09757373868872,33.4961646645097
1743293037283,20:03:57.283,-1,1442.49084249084,5.11799466503299,33.4961646645097
1743293037302,20:03:57.302,-1,1424.90842490842,5.13841559137726,33.4961646645097
1743293037322,20:03:57.322,-1,1408.79120879121,5.15373128613547,33.4961646645097
1743293037341,20:03:57.341,-1,1394.13919413919,5.17415221247974,33.4961646645097
1743293037361,20:03:57.361,-1,1383.88278388278,5.19457313882401,33.4961646645097
1743293037380,20:03:57.380,-1,1378.02197802198,5.20988883358221,33.4961646645097
1743293037400,20:03:57.400,-1,1378.02197802198,5.23030975992649,33.4961646645097
1743293037419,20:03:57.419,-1,1364.10256410256,5.24562545468469,33.4961646645097
1743293037439,20:03:57.439,-1,1339.19413919414,5.27115161261503,33.4961646645097
1743293037458,20:03:57.458,-1,1318.68131868132,5.28646730737323,33.4961646645097
1743293037478,20:03:57.478,-1,1312.08791208791,5.3068882337175,33.4961646645097
1743293037497,20:03:57.497,-1,1306.95970695971,5.32730916006177,33.4961646645097
1743293037517,20:03:57.517,-1,1298.1684981685,5.34773008640604,33.4961646645097
1743293037536,20:03:57.536,-1,1281.31868131868,5.36304578116425,33.4961646645097
1743293037556,20:03:57.556,-1,1254.94505494505,5.38346670750852,33.4961646645097
1743293037575,20:03:57.575,-1,1239.56043956044,5.39878240226672,33.4961646645097
1743293037595,20:03:57.595,-1,1227.10622710623,5.41920332861099,33.4961646645097
1743293037614,20:03:57.614,-1,1216.84981684982,5.43962425495527,33.4961646645097
1743293037634,20:03:57.634,-1,1218.31501831502,5.45493994971347,33.4961646645097
1743293037653,20:03:57.653,-1,1225.64102564103,5.47536087605774,33.4961646645097
1743293037673,20:03:57.673,-1,1227.10622710623,5.49578180240201,33.4961646645097
1743293037692,20:03:57.692,-1,1232.23443223443,5.51620272874628,33.4961646645097
1743293037712,20:03:57.712,-1,1223.44322344322,5.54172888667662,33.4961646645097
1743293037731,20:03:57.731,-1,1205.86080586081,5.55704458143483,33.4961646645097
1743293037751,20:03:57.751,-1,1213.18681318681,5.5774655077791,33.5061711677117
1743293037770,20:03:57.770,-1,1210.25641025641,5.59788643412337,33.5061711677117
1743293037790,20:03:57.790,-1,1197.0695970696,5.61320212888157,33.5061711677117
1743293037809,20:03:57.809,-1,1200,5.63362305522584,33.5061711677117
1743293037829,20:03:57.829,-1,1215.38461538462,5.65404398157011,33.5061711677117
1743293037848,20:03:57.848,-1,1252.74725274725,5.67446490791438,33.5061711677117
1743293037868,20:03:57.868,-1,1320.14652014652,5.69488583425865,33.5061711677117
1743293037887,20:03:57.887,-1,1402.1978021978,5.71020152901686,33.5061711677117
1743293037907,20:03:57.907,-1,1484.24908424908,5.72551722377506,33.5061711677117
1743293037926,20:03:57.926,-1,1563.36996336996,5.74083291853327,33.5061711677117
1743293037946,20:03:57.946,-1,1605.86080586081,5.75614861329147,33.5061711677117
1743293037965,20:03:57.965,-1,1628.57142857143,5.7663590764636,33.5061711677117
1743293037985,20:03:57.985,-1,1642.49084249084,5.78167477122181,33.5061711677117
1743293038004,20:03:58.004,-1,1643.95604395604,5.79188523439394,33.5061711677117
1743293038024,20:03:58.024,-1,1648.35164835165,5.80209569756608,33.5061711677117
1743293038043,20:03:58.043,-1,1631.50183150183,5.81741139232428,33.5061711677117
1743293038063,20:03:58.063,-1,1610.25641025641,5.82762185549642,33.5061711677117
1743293038082,20:03:58.082,-1,1585.34798534799,5.83783231866855,33.5061711677117
1743293038102,20:03:58.102,-1,1560.43956043956,5.84804278184069,33.5061711677117
1743293038121,20:03:58.121,-1,1534.79853479853,5.85825324501283,33.5061711677117
1743293038141,20:03:58.141,-1,1509.89010989011,5.86846370818496,33.5061711677117
1743293038160,20:03:58.160,-1,1488.64468864469,5.8786741713571,33.5061711677117
1743293038180,20:03:58.180,-1,1474.72527472527,5.88377940294317,33.5061711677117
1743293038199,20:03:58.199,-1,1472.52747252747,5.8939898661153,33.5061711677117
1743293038219,20:03:58.219,-1,1471.79487179487,5.89909509770137,33.5061711677117
1743293038238,20:03:58.238,-1,1458.60805860806,5.90930556087351,33.5061711677117
1743293038258,20:03:58.258,-1,1434.43223443223,5.91951602404564,33.5061711677117
1743293038277,20:03:58.277,-1,1411.72161172161,5.92972648721778,33.5061711677117
1743293038297,20:03:58.297,-1,1389.01098901099,5.93483171880384,33.5061711677117
1743293038316,20:03:58.316,-1,1358.97435897436,5.93993695038991,33.5061711677117
1743293038336,20:03:58.336,-1,1341.39194139194,5.94504218197598,33.5061711677117
1743293038355,20:03:58.355,-1,1332.60073260073,5.95014741356205,33.5061711677117
1743293038375,20:03:58.375,-1,1338.46153846154,5.95014741356205,33.5061711677117
1743293038394,20:03:58.394,-1,1329.67032967033,5.95525264514812,33.5061711677117
1743293038414,20:03:58.414,-1,1302.5641025641,5.96035787673418,33.5061711677117
1743293038433,20:03:58.433,-1,1281.31868131868,5.96546310832025,33.5061711677117
1743293038453,20:03:58.453,-1,1270.32967032967,5.97056833990632,33.5061711677117
1743293038472,20:03:58.472,-1,1246.88644688645,5.97567357149239,33.5061711677117
1743293038492,20:03:58.492,-1,1230.76923076923,5.98077880307845,33.5061711677117
1743293038511,20:03:58.511,-1,1227.10622710623,6.00119972942273,33.5061711677117
1743293038531,20:03:58.531,-1,1228.57142857143,6.00119972942273,33.5061711677117
1743293038550,20:03:58.550,-1,1221.97802197802,6.00119972942273,33.5061711677117
1743293038570,20:03:58.570,-1,1218.31501831502,6.00630496100879,33.5061711677117
1743293038589,20:03:58.589,-1,1206.59340659341,6.00630496100879,33.5061711677117
1743293038609,20:03:58.609,-1,1206.59340659341,6.00630496100879,33.5061711677117
1743293038628,20:03:58.628,-1,1210.25641025641,6.00630496100879,33.5061711677117
1743293038648,20:03:58.648,-1,1210.98901098901,6.00630496100879,33.5061711677117
1743293038667,20:03:58.667,-1,1205.12820512821,6.00630496100879,33.5061711677117
1743293038687,20:03:58.687,-1,1214.65201465201,6.00630496100879,33.5061711677117
1743293038706,20:03:58.706,-1,1255.67765567766,6.00630496100879,33.5061711677117
1743293038726,20:03:58.726,-1,1334.79853479853,6.00630496100879,33.5061711677117
1743293038745,20:03:58.745,-1,1447.61904761905,6.00630496100879,33.4961646645097
1743293038765,20:03:58.765,-1,1547.98534798535,6.00119972942273,33.4961646645097
1743293038784,20:03:58.784,-1,1649.08424908425,6.00119972942273,33.4961646645097
1743293038804,20:03:58.804,-1,1725.27472527473,6.00119972942273,33.4961646645097
1743293038823,20:03:58.823,-1,1768.49816849817,6.00630496100879,33.4961646645097
1743293038843,20:03:58.843,-1,1791.94139194139,6.01141019259486,33.4961646645097
1743293038862,20:03:58.862,-1,1800.7326007326,6.01141019259486,33.4961646645097
1743293038882,20:03:58.882,-1,1802.9304029304,6.00630496100879,33.4961646645097
1743293038901,20:03:58.901,-1,1804.3956043956,6.00119972942273,33.4961646645097
1743293038921,20:03:58.921,-1,1791.94139194139,5.99609449783666,33.4961646645097
1743293038940,20:03:58.940,-1,1761.90476190476,5.99609449783666,33.4961646645097
1743293038960,20:03:58.960,-1,1728.20512820513,5.99098926625059,33.4961646645097
1743293038979,20:03:58.979,-1,1687.17948717949,5.99098926625059,33.4961646645097
1743293038999,20:03:58.999,-1,1646.15384615385,5.98588403466452,33.4961646645097
1743293039018,20:03:59.018,-1,1627.10622710623,5.98588403466452,33.4961646645097
1743293039038,20:03:59.038,-1,1613.91941391941,5.98077880307845,33.4961646645097
1743293039057,20:03:59.057,-1,1601.4652014652,5.97567357149239,33.4961646645097
1743293039077,20:03:59.077,-1,1588.27838827839,5.97567357149239,33.4961646645097
1743293039096,20:03:59.096,-1,1577.28937728938,5.97056833990632,33.4961646645097
1743293039116,20:03:59.116,-1,1553.84615384615,5.96546310832025,33.4961646645097
1743293039135,20:03:59.135,-1,1533.33333333333,5.96035787673418,33.4961646645097
1743293039155,20:03:59.155,-1,1498.9010989011,5.95525264514812,33.4961646645097
1743293039174,20:03:59.174,-1,1457.87545787546,5.95014741356205,33.4961646645097
1743293039194,20:03:59.194,-1,1438.82783882784,5.94504218197598,33.4961646645097
1743293039213,20:03:59.213,-1,1421.97802197802,5.93993695038991,33.4961646645097
1743293039233,20:03:59.233,-1,1397.0695970696,5.93483171880384,33.4961646645097
1743293039252,20:03:59.252,-1,1377.28937728938,5.92972648721778,33.4961646645097
1743293039272,20:03:59.272,-1,1358.97435897436,5.91951602404564,33.4961646645097
1743293039291,20:03:59.291,-1,1327.47252747253,5.91441079245957,33.4961646645097
1743293039311,20:03:59.311,-1,1317.94871794872,5.90930556087351,33.4961646645097
1743293039330,20:03:59.330,-1,1326.00732600733,5.90420032928744,33.4961646645097
1743293039350,20:03:59.350,-1,1315.01831501831,5.89909509770137,33.4961646645097
1743293039369,20:03:59.369,-1,1311.35531135531,5.8939898661153,33.4961646645097
1743293039389,20:03:59.389,-1,1297.4358974359,5.88888463452923,33.4961646645097
1743293039408,20:03:59.408,-1,1290.84249084249,5.88377940294317,33.4961646645097
1743293039428,20:03:59.428,-1,1277.65567765568,5.8786741713571,33.4961646645097
1743293039447,20:03:59.447,-1,1258.60805860806,5.86846370818496,33.4961646645097
1743293039467,20:03:59.467,-1,1242.49084249084,5.86335847659889,33.4961646645097
1743293039486,20:03:59.486,-1,1263.73626373626,5.85314801342676,33.4961646645097
1743293039506,20:03:59.506,-1,1350.18315018315,5.84804278184069,33.4961646645097
1743293039525,20:03:59.525,-1,1468.86446886447,5.84293755025462,33.4961646645097
1743293039545,20:03:59.545,-1,1608.79120879121,5.83272708708249,33.4961646645097
1743293039564,20:03:59.564,-1,1731.13553113553,5.82251662391035,33.4961646645097
1743293039584,20:03:59.584,-1,1820.51282051282,5.81741139232428,33.4961646645097
1743293039603,20:03:59.603,-1,1890.10989010989,5.81230616073822,33.4961646645097
1743293039623,20:03:59.623,-1,1934.06593406593,5.80720092915215,33.4961646645097
1743293039642,20:03:59.642,-1,1947.98534798535,5.80209569756608,33.4961646645097
1743293039662,20:03:59.662,-1,1942.12454212454,5.79699046598001,33.4961646645097
1743293039681,20:03:59.681,-1,1916.48351648352,5.79188523439394,33.4961646645097
1743293039701,20:03:59.701,-1,1883.51648351648,5.78678000280788,33.4961646645097
1743293039720,20:03:59.720,-1,1859.34065934066,5.78167477122181,33.4961646645097
1743293039740,20:03:59.740,-1,1833.69963369963,5.77146430804967,33.5011679190211
1743293039759,20:03:59.759,-1,1787.54578754579,5.7663590764636,33.5011679190211
1743293039779,20:03:59.779,-1,1737.72893772894,5.76125384487754,33.5011679190211
1743293039798,20:03:59.798,-1,1703.2967032967,5.75614861329147,33.5011679190211
1743293039818,20:03:59.818,-1,1676.92307692308,5.74593815011933,33.5011679190211
1743293039837,20:03:59.837,-1,1660.80586080586,5.74083291853327,33.5011679190211
1743293039857,20:03:59.857,-1,1646.15384615385,5.7357276869472,33.5011679190211
1743293039876,20:03:59.876,-1,1624.90842490842,5.72551722377506,33.5011679190211
1743293039896,20:03:59.896,-1,1598.5347985348,5.71530676060293,33.5011679190211
1743293039915,20:03:59.915,-1,1572.89377289377,5.71020152901686,33.5011679190211
1743293039935,20:03:59.935,-1,1555.31135531136,5.70509629743079,33.5011679190211
1743293039954,20:03:59.954,-1,1543.58974358974,5.69999106584472,33.5011679190211
1743293039974,20:03:59.974,-1,1506.22710622711,5.68978060267259,33.5011679190211
1743293039993,20:03:59.993,-1,1470.32967032967,5.68467537108652,33.5011679190211
1743293040013,20:04:00.013,-1,1431.50183150183,5.67446490791438,33.5011679190211
1743293040032,20:04:00.032,-1,1400.7326007326,5.66935967632832,33.5011679190211
1743293040052,20:04:00.052,-1,1378.02197802198,5.66425444474225,33.5011679190211
1743293040071,20:04:00.071,-1,1356.04395604396,5.65404398157011,33.5011679190211
1743293040091,20:04:00.091,-1,1341.39194139194,5.65404398157011,33.5011679190211
1743293040110,20:04:00.110,-1,1334.79853479853,5.64383351839798,33.5011679190211
1743293040130,20:04:00.130,-1,1324.54212454212,5.63872828681191,33.5011679190211
1743293040149,20:04:00.149,-1,1315.75091575092,5.63362305522584,33.5011679190211
1743293040169,20:04:00.169,-1,1293.04029304029,5.62851782363977,33.5011679190211
1743293040188,20:04:00.188,-1,1271.79487179487,5.62341259205371,33.5011679190211
1743293040208,20:04:00.208,-1,1260.80586080586,5.61830736046764,33.5011679190211
1743293040227,20:04:00.227,-1,1261.53846153846,5.61320212888157,33.5011679190211
1743293040247,20:04:00.247,-1,1309.15750915751,5.60299166570943,33.5011679190211
1743293040266,20:04:00.266,-1,1408.79120879121,5.59788643412337,33.5011679190211
1743293040286,20:04:00.286,-1,1545.78754578755,5.5927812025373,33.5011679190211
1743293040305,20:04:00.305,-1,1714.28571428571,5.58767597095123,33.5011679190211
1743293040325,20:04:00.325,-1,1868.13186813187,5.5774655077791,33.5011679190211
1743293040344,20:04:00.344,-1,1974.35897435897,5.57236027619303,33.5011679190211
1743293040364,20:04:00.364,-1,2037.36263736264,5.56725504460696,33.5011679190211
1743293040383,20:04:00.383,-1,2069.59706959707,5.55704458143483,33.5011679190211
1743293040403,20:04:00.403,-1,2065.20146520146,5.55193934984876,33.5011679190211
1743293040422,20:04:00.422,-1,2043.22344322344,5.54683411826269,33.5011679190211
1743293040442,20:04:00.442,-1,2014.65201465201,5.53662365509055,33.5011679190211
1743293040461,20:04:00.461,-1,1979.48717948718,5.53662365509055,33.5011679190211
1743293040481,20:04:00.481,-1,1949.45054945055,5.52641319191842,33.5011679190211
1743293040500,20:04:00.500,-1,1902.5641025641,5.52130796033235,33.5011679190211
1743293040520,20:04:00.520,-1,1847.61904761905,5.52641319191842,33.5011679190211
1743293040539,20:04:00.539,-1,1794.13919413919,5.52641319191842,33.5011679190211
1743293040559,20:04:00.559,-1,1755.31135531136,5.52130796033235,33.5011679190211
1743293040578,20:04:00.578,-1,1713.55311355311,5.51109749716022,33.5011679190211
1743293040598,20:04:00.598,-1,1673.26007326007,5.50599226557415,33.5011679190211
1743293040617,20:04:00.617,-1,1643.22344322344,5.50599226557415,33.5011679190211
1743293040637,20:04:00.637,-1,1618.31501831502,5.49578180240201,33.5011679190211
1743293040656,20:04:00.656,-1,1582.41758241758,5.49067657081594,33.5011679190211
1743293040676,20:04:00.676,-1,1555.31135531136,5.48557133922987,33.5011679190211
1743293040695,20:04:00.695,-1,1535.53113553114,5.48557133922987,33.5011679190211
1743293040715,20:04:00.715,-1,1500.3663003663,5.48046610764381,33.5011679190211
1743293040734,20:04:00.734,-1,1456.41025641026,5.47025564447167,33.5061711677117
1743293040754,20:04:00.754,-1,1419.78021978022,5.46515041288561,33.5061711677117
1743293040773,20:04:00.773,-1,1378.75457875458,5.46515041288561,33.5061711677117
1743293040793,20:04:00.793,-1,1353.11355311355,5.46004518129954,33.5061711677117
1743293040812,20:04:00.812,-1,1347.98534798535,5.45493994971347,33.5061711677117
1743293040832,20:04:00.832,-1,1336.99633699634,5.4498347181274,33.5061711677117
1743293040851,20:04:00.851,-1,1320.14652014652,5.4498347181274,33.5061711677117
1743293040871,20:04:00.871,-1,1294.50549450549,5.44472948654133,33.5061711677117
1743293040890,20:04:00.890,-1,1270.32967032967,5.43962425495527,33.5061711677117
1743293040910,20:04:00.910,-1,1246.88644688645,5.4345190233692,33.5061711677117
1743293040929,20:04:00.929,-1,1224.90842490842,5.4345190233692,33.5061711677117
1743293040949,20:04:00.949,-1,1234.43223443223,5.42941379178313,33.5061711677117
1743293040968,20:04:00.968,-1,1315.75091575092,5.42430856019706,33.5061711677117
1743293040988,20:04:00.988,-1,1477.65567765568,5.42430856019706,33.5061711677117
1743293041007,20:04:01.007,-1,1688.64468864469,5.41920332861099,33.5061711677117
1743293041027,20:04:01.027,-1,1870.32967032967,5.41409809702493,33.5061711677117
1743293041046,20:04:01.046,-1,2008.79120879121,5.41409809702493,33.5061711677117
1743293041066,20:04:01.066,-1,2086.44688644689,5.40899286543886,33.5061711677117
1743293041085,20:04:01.085,-1,2133.33333333333,5.40388763385279,33.5061711677117
1743293041105,20:04:01.105,-1,2134.06593406593,5.39878240226672,33.5061711677117
1743293041124,20:04:01.124,-1,2116.48351648352,5.39878240226672,33.5061711677117
1743293041144,20:04:01.144,-1,2083.51648351648,5.39367717068065,33.5061711677117
1743293041163,20:04:01.163,-1,2053.47985347985,5.39367717068065,33.5061711677117
1743293041183,20:04:01.183,-1,1993.40659340659,5.39367717068065,33.5061711677117
1743293041202,20:04:01.202,-1,1919.41391941392,5.39367717068065,33.5061711677117
1743293041222,20:04:01.222,-1,1826.37362637363,5.38857193909459,33.5061711677117
1743293041241,20:04:01.241,-1,1752.38095238095,5.38857193909459,33.5061711677117
1743293041261,20:04:01.261,-1,1709.89010989011,5.38857193909459,33.5061711677117
1743293041280,20:04:01.280,-1,1668.86446886447,5.38857193909459,33.5061711677117
1743293041300,20:04:01.300,-1,1632.23443223443,5.38346670750852,33.5061711677117
1743293041319,20:04:01.319,-1,1619.78021978022,5.37836147592245,33.5061711677117
1743293041339,20:04:01.339,-1,1608.05860805861,5.37325624433638,33.5061711677117
1743293041358,20:04:01.358,-1,1575.82417582418,5.36815101275032,33.5061711677117
1743293041378,20:04:01.378,-1,1522.34432234432,5.36304578116425,33.5061711677117
1743293041397,20:04:01.397,-1,1469.59706959707,5.35283531799211,33.5061711677117
1743293041417,20:04:01.417,-1,1428.57142857143,5.35283531799211,33.5061711677117
1743293041436,20:04:01.436,-1,1393.40659340659,5.34773008640604,33.5061711677117
1743293041456,20:04:01.456,-1,1356.77655677656,5.34262485481998,33.5061711677117
1743293041475,20:04:01.475,-1,1331.13553113553,5.33751962323391,33.5061711677117
1743293041495,20:04:01.495,-1,1310.62271062271,5.33241439164784,33.5061711677117
1743293041514,20:04:01.514,-1,1272.52747252747,5.33241439164784,33.5061711677117
1743293041534,20:04:01.534,-1,1253.47985347985,5.32730916006177,33.5061711677117
1743293041553,20:04:01.553,-1,1235.16483516484,5.32220392847571,33.5061711677117
1743293041573,20:04:01.573,-1,1208.79120879121,5.32220392847571,33.5061711677117
1743293041592,20:04:01.592,-1,1181.68498168498,5.31709869688964,33.5061711677117
1743293041612,20:04:01.612,-1,1166.30036630037,5.31199346530357,33.5061711677117
1743293041631,20:04:01.631,-1,1198.5347985348,5.3068882337175,33.5061711677117
1743293041651,20:04:01.651,-1,1338.46153846154,5.30178300213143,33.5061711677117
1743293041670,20:04:01.670,-1,1554.57875457875,5.29667777054536,33.5061711677117
1743293041690,20:04:01.690,-1,1771.42857142857,5.28646730737323,33.5061711677117
1743293041709,20:04:01.709,-1,1942.12454212454,5.28136207578716,33.5061711677117
1743293041729,20:04:01.729,-1,2047.61904761905,5.27625684420109,33.5161776476307
1743293041748,20:04:01.748,-1,2101.0989010989,5.27115161261503,33.5161776476307
1743293041768,20:04:01.768,-1,2099.6336996337,5.26604638102896,33.5161776476307
1743293041787,20:04:01.787,-1,2075.45787545788,5.26094114944289,33.5161776476307
1743293041807,20:04:01.807,-1,2031.50183150183,5.26094114944289,33.5161776476307
1743293041826,20:04:01.826,-1,1966.30036630037,5.25583591785682,33.5161776476307
1743293041846,20:04:01.846,-1,1886.44688644689,5.25583591785682,33.5161776476307
1743293041865,20:04:01.865,-1,1801.4652014652,5.25073068627075,33.5161776476307
1743293041885,20:04:01.885,-1,1701.8315018315,5.24562545468469,33.5161776476307
1743293041904,20:04:01.904,-1,1618.31501831502,5.24052022309862,33.5161776476307
1743293041924,20:04:01.924,-1,1551.64835164835,5.24052022309862,33.5161776476307
1743293041943,20:04:01.943,-1,1512.08791208791,5.23541499151255,33.5161776476307
1743293041963,20:04:01.963,-1,1487.91208791209,5.23541499151255,33.5161776476307
1743293041982,20:04:01.982,-1,1467.39926739927,5.23030975992649,33.5161776476307
1743293042002,20:04:02.002,-1,1453.47985347985,5.22520452834042,33.5161776476307
1743293042021,20:04:02.021,-1,1424.17582417582,5.22520452834042,33.5161776476307
1743293042041,20:04:02.041,-1,1385.34798534799,5.22520452834042,33.5161776476307
1743293042060,20:04:02.060,-1,1349.45054945055,5.22009929675435,33.5161776476307
1743293042080,20:04:02.080,-1,1308.42490842491,5.22009929675435,33.5161776476307
1743293042099,20:04:02.099,-1,1258.60805860806,5.21499406516828,33.5161776476307
1743293042119,20:04:02.119,-1,1213.18681318681,5.21499406516828,33.5161776476307
1743293042138,20:04:02.138,-1,1190.47619047619,5.21499406516828,33.5161776476307
1743293042158,20:04:02.158,-1,1165.56776556777,5.20988883358221,33.5161776476307
1743293042177,20:04:02.177,-1,1132.60073260073,5.20988883358221,33.5161776476307
1743293042197,20:04:02.197,-1,1104.0293040293,5.20988883358221,33.5161776476307
1743293042216,20:04:02.216,-1,1080.58608058608,5.20478360199614,33.5161776476307
1743293042236,20:04:02.236,-1,1071.79487179487,5.20478360199614,33.5161776476307
1743293042255,20:04:02.255,-1,1064.46886446886,5.19967837041008,33.5161776476307
1743293042275,20:04:02.275,-1,1041.75824175824,5.19967837041008,33.5161776476307
1743293042294,20:04:02.294,-1,1019.04761904762,5.19967837041008,33.5161776476307
1743293042314,20:04:02.314,-1,1027.83882783883,5.19457313882401,33.5161776476307
1743293042333,20:04:02.333,-1,1117.21611721612,5.19967837041008,33.5161776476307
1743293042353,20:04:02.353,-1,1293.77289377289,5.19457313882401,33.5161776476307
1743293042372,20:04:02.372,-1,1513.55311355311,5.19457313882401,33.5161776476307
1743293042392,20:04:02.392,-1,1724.54212454212,5.19457313882401,33.5161776476307
1743293042411,20:04:02.411,-1,1865.93406593407,5.19457313882401,33.5161776476307
1743293042431,20:04:02.431,-1,1946.52014652015,5.19457313882401,33.5161776476307
1743293042450,20:04:02.450,-1,1969.96336996337,5.18946790723794,33.5161776476307
1743293042470,20:04:02.470,-1,1958.97435897436,5.18946790723794,33.5161776476307
1743293042489,20:04:02.489,-1,1907.69230769231,5.18946790723794,33.5161776476307
1743293042509,20:04:02.509,-1,1844.68864468864,5.18436267565187,33.5161776476307
1743293042528,20:04:02.528,-1,1772.89377289377,5.18436267565187,33.5161776476307
1743293042548,20:04:02.548,-1,1701.8315018315,5.18436267565187,33.5161776476307
1743293042567,20:04:02.567,-1,1619.04761904762,5.17925744406581,33.5161776476307
1743293042587,20:04:02.587,-1,1545.78754578755,5.17925744406581,33.5161776476307
1743293042606,20:04:02.606,-1,1487.91208791209,5.17925744406581,33.5161776476307
1743293042626,20:04:02.626,-1,1445.42124542125,5.17415221247974,33.5161776476307
1743293042645,20:04:02.645,-1,1425.64102564103,5.17415221247974,33.5161776476307
1743293042665,20:04:02.665,-1,1412.45421245421,5.17415221247974,33.5161776476307
1743293042684,20:04:02.684,-1,1399.2673992674,5.17415221247974,33.5161776476307
1743293042704,20:04:02.704,-1,1380.21978021978,5.16904698089367,33.5161776476307
1743293042723,20:04:02.723,-1,1356.77655677656,5.17415221247974,33.521180878859
1743293042743,20:04:02.743,-1,1326.73992673993,5.16904698089367,33.521180878859
1743293042762,20:04:02.762,-1,1293.77289377289,5.17415221247974,33.521180878859
1743293042782,20:04:02.782,-1,1268.13186813187,5.16904698089367,33.521180878859
1743293042801,20:04:02.801,-1,1239.56043956044,5.17415221247974,33.521180878859
1743293042821,20:04:02.821,-1,1199.2673992674,5.17415221247974,33.521180878859
1743293042840,20:04:02.840,-1,1156.04395604396,5.17415221247974,33.521180878859
1743293042860,20:04:02.860,-1,1116.48351648352,5.17415221247974,33.521180878859
1743293042879,20:04:02.879,-1,1097.4358974359,5.17925744406581,33.521180878859
1743293042899,20:04:02.899,-1,1088.64468864469,5.18436267565187,33.521180878859
1743293042918,20:04:02.918,-1,1075.45787545788,5.18436267565187,33.521180878859
1743293042938,20:04:02.938,-1,1058.60805860806,5.18946790723794,33.521180878859
1743293042957,20:04:02.957,-1,1047.61904761905,5.18946790723794,33.521180878859
1743293042977,20:04:02.977,-1,1065.20146520147,5.19967837041008,33.521180878859
1743293042996,20:04:02.996,-1,1158.24175824176,5.20478360199614,33.521180878859
1743293043016,20:04:03.016,-1,1331.86813186813,5.20988883358221,33.521180878859
1743293043035,20:04:03.035,-1,1529.67032967033,5.20988883358221,33.521180878859
1743293043055,20:04:03.055,-1,1684.24908424908,5.22009929675435,33.521180878859
1743293043074,20:04:03.074,-1,1783.88278388278,5.22009929675435,33.521180878859
1743293043094,20:04:03.094,-1,1834.43223443223,5.22520452834042,33.521180878859
1743293043113,20:04:03.113,-1,1862.27106227106,5.23030975992649,33.521180878859
1743293043133,20:04:03.133,-1,1856.41025641026,5.23541499151255,33.521180878859
1743293043152,20:04:03.152,-1,1823.44322344322,5.24562545468469,33.521180878859
1743293043172,20:04:03.172,-1,1771.42857142857,5.25073068627075,33.521180878859
1743293043191,20:04:03.191,-1,1717.94871794872,5.25583591785682,33.521180878859
1743293043211,20:04:03.211,-1,1660.80586080586,5.26094114944289,33.521180878859
1743293043230,20:04:03.230,-1,1590.47619047619,5.27115161261503,33.521180878859
1743293043250,20:04:03.250,-1,1512.82051282051,5.27625684420109,33.521180878859
1743293043269,20:04:03.269,-1,1439.56043956044,5.28136207578716,33.521180878859
1743293043289,20:04:03.289,-1,1383.88278388278,5.28646730737323,33.521180878859
1743293043308,20:04:03.308,-1,1350.18315018315,5.29667777054536,33.521180878859
1743293043328,20:04:03.328,-1,1324.54212454212,5.30178300213143,33.521180878859
1743293043347,20:04:03.347,-1,1288.64468864469,5.31199346530357,33.521180878859
1743293043367,20:04:03.367,-1,1266.66666666667,5.31709869688964,33.521180878859
1743293043386,20:04:03.386,-1,1245.42124542125,5.32220392847571,33.521180878859
1743293043406,20:04:03.406,-1,1219.78021978022,5.33241439164784,33.521180878859
1743293043425,20:04:03.425,-1,1197.0695970696,5.33751962323391,33.521180878859
1743293043445,20:04:03.445,-1,1182.41758241758,5.34773008640604,33.521180878859
1743293043464,20:04:03.464,-1,1156.77655677656,5.35283531799211,33.521180878859
1743293043484,20:04:03.484,-1,1131.86813186813,5.36304578116425,33.521180878859
1743293043503,20:04:03.503,-1,1109.15750915751,5.36815101275032,33.521180878859
1743293043523,20:04:03.523,-1,1082.78388278388,5.37836147592245,33.521180878859
1743293043542,20:04:03.542,-1,1063.00366300366,5.38346670750852,33.521180878859
1743293043562,20:04:03.562,-1,1040.29304029304,5.39367717068065,33.521180878859
1743293043581,20:04:03.581,-1,1017.58241758242,5.39878240226672,33.521180878859
1743293043601,20:04:03.601,-1,989.010989010989,5.40899286543886,33.521180878859
1743293043620,20:04:03.620,-1,967.032967032967,5.41409809702493,33.521180878859
1743293043640,20:04:03.640,-1,986.813186813187,5.41920332861099,33.521180878859
1743293043659,20:04:03.659,-1,1060.80586080586,5.42941379178313,33.521180878859
1743293043679,20:04:03.679,-1,1194.87179487179,5.4345190233692,33.521180878859
1743293043698,20:04:03.698,-1,1370.69597069597,5.43962425495527,33.521180878859
1743293043718,20:04:03.718,-1,1520.87912087912,5.44472948654133,33.5061711677117
1743293043737,20:04:03.737,-1,1643.95604395604,5.45493994971347,33.5061711677117
1743293043757,20:04:03.757,-1,1731.86813186813,5.45493994971347,33.5061711677117
1743293043776,20:04:03.776,-1,1769.96336996337,5.46004518129954,33.5061711677117
1743293043796,20:04:03.796,-1,1775.09157509157,5.47025564447167,33.5061711677117
1743293043815,20:04:03.815,-1,1774.35897435897,5.47536087605774,33.5061711677117
1743293043835,20:04:03.835,-1,1759.70695970696,5.48557133922987,33.5061711677117
1743293043854,20:04:03.854,-1,1727.47252747253,5.50599226557415,33.5061711677117
1743293043874,20:04:03.874,-1,1676.19047619048,5.52641319191842,33.5061711677117
1743293043893,20:04:03.893,-1,1611.72161172161,5.53151842350448,33.5061711677117
1743293043913,20:04:03.913,-1,1532.60073260073,5.53662365509055,33.5061711677117
1743293043932,20:04:03.932,-1,1448.35164835165,5.53662365509055,33.5061711677117
1743293043952,20:04:03.952,-1,1394.13919413919,5.54172888667662,33.5061711677117
1743293043971,20:04:03.971,-1,1350.18315018315,5.54172888667662,33.5061711677117
1743293043991,20:04:03.991,-1,1287.17948717949,5.54683411826269,33.5061711677117
1743293044010,20:04:04.010,-1,1246.15384615385,5.54683411826269,33.5061711677117
1743293044030,20:04:04.030,-1,1229.30402930403,5.55193934984876,33.5061711677117
1743293044049,20:04:04.049,-1,1221.24542124542,5.55193934984876,33.5061711677117
1743293044069,20:04:04.069,-1,1199.2673992674,5.55193934984876,33.5061711677117
1743293044088,20:04:04.088,-1,1168.49816849817,5.55704458143483,33.5061711677117
1743293044108,20:04:04.108,-1,1134.06593406593,5.55704458143483,33.5061711677117
1743293044127,20:04:04.127,-1,1095.9706959707,5.56214981302089,33.5061711677117
1743293044147,20:04:04.147,-1,1065.20146520147,5.56214981302089,33.5061711677117
1743293044166,20:04:04.166,-1,1038.82783882784,5.56214981302089,33.5061711677117
1743293044186,20:04:04.186,-1,1013.91941391941,5.56725504460696,33.5061711677117
1743293044205,20:04:04.205,-1,1008.05860805861,5.56725504460696,33.5061711677117
1743293044225,20:04:04.225,-1,1007.32600732601,5.56725504460696,33.5061711677117
1743293044244,20:04:04.244,-1,992.673992673993,5.57236027619303,33.5061711677117
1743293044264,20:04:04.264,-1,983.150183150183,5.57236027619303,33.5061711677117
1743293044283,20:04:04.283,-1,966.300366300366,5.57236027619303,33.5061711677117
1743293044303,20:04:04.303,-1,947.985347985348,5.57236027619303,33.5061711677117
1743293044322,20:04:04.322,-1,926.007326007326,5.5774655077791,33.5061711677117
1743293044342,20:04:04.342,-1,912.820512820513,5.5774655077791,33.5061711677117
1743293044361,20:04:04.361,-1,922.344322344322,5.5774655077791,33.5061711677117
1743293044381,20:04:04.381,-1,980.952380952381,5.5774655077791,33.5061711677117
1743293044400,20:04:04.400,-1,1086.44688644689,5.5774655077791,33.5061711677117
1743293044420,20:04:04.420,-1,1239.56043956044,5.57236027619303,33.5061711677117
1743293044439,20:04:04.439,-1,1383.88278388278,5.57236027619303,33.5061711677117
1743293044459,20:04:04.459,-1,1486.44688644689,5.5774655077791,33.5061711677117
1743293044478,20:04:04.478,-1,1556.04395604396,5.5774655077791,33.5061711677117
1743293044498,20:04:04.498,-1,1601.4652014652,5.5774655077791,33.5061711677117
1743293044517,20:04:04.517,-1,1621.97802197802,5.57236027619303,33.5061711677117
1743293044537,20:04:04.537,-1,1605.86080586081,5.57236027619303,33.5061711677117
1743293044556,20:04:04.556,-1,1579.48717948718,5.56725504460696,33.5061711677117
1743293044576,20:04:04.576,-1,1559.70695970696,5.56214981302089,33.5061711677117
1743293044595,20:04:04.595,-1,1532.60073260073,5.56214981302089,33.5061711677117
1743293044615,20:04:04.615,-1,1482.05128205128,5.55704458143483,33.5061711677117
1743293044634,20:04:04.634,-1,1428.57142857143,5.55704458143483,33.5061711677117
1743293044654,20:04:04.654,-1,1373.62637362637,5.55193934984876,33.5061711677117
1743293044673,20:04:04.673,-1,1323.80952380952,5.54683411826269,33.5061711677117
1743293044693,20:04:04.693,-1,1287.91208791209,5.54172888667662,33.5061711677117
1743293044712,20:04:04.712,-1,1261.53846153846,5.54172888667662,33.521180878859
1743293044732,20:04:04.732,-1,1241.02564102564,5.53662365509055,33.521180878859
1743293044751,20:04:04.751,-1,1219.78021978022,5.53151842350448,33.521180878859
1743293044771,20:04:04.771,-1,1200,5.53151842350448,33.521180878859
1743293044790,20:04:04.790,-1,1184.61538461538,5.53151842350448,33.521180878859
1743293044810,20:04:04.810,-1,1167.03296703297,5.52641319191842,33.521180878859
1743293044829,20:04:04.829,-1,1139.19413919414,5.52641319191842,33.521180878859
1743293044849,20:04:04.849,-1,1108.42490842491,5.52641319191842,33.521180878859
1743293044868,20:04:04.868,-1,1079.12087912088,5.52130796033235,33.521180878859
1743293044888,20:04:04.888,-1,1052.01465201465,5.51620272874628,33.521180878859
1743293044907,20:04:04.907,-1,1048.35164835165,5.51109749716022,33.521180878859
1743293044927,20:04:04.927,-1,1046.15384615385,5.51109749716022,33.521180878859
1743293044946,20:04:04.946,-1,1032.96703296703,5.50599226557415,33.521180878859
1743293044966,20:04:04.966,-1,1019.78021978022,5.50088703398808,33.521180878859
1743293044985,20:04:04.985,-1,1013.18681318681,5.50088703398808,33.521180878859
1743293045005,20:04:05.005,-1,1005.12820512821,5.49067657081594,33.521180878859
1743293045024,20:04:05.024,-1,992.673992673993,5.49067657081594,33.521180878859
1743293045044,20:04:05.044,-1,972.893772893773,5.48557133922987,33.521180878859
1743293045063,20:04:05.063,-1,954.578754578755,5.48046610764381,33.521180878859
1743293045083,20:04:05.083,-1,951.648351648352,5.47025564447167,33.521180878859
1743293045102,20:04:05.102,-1,956.776556776557,5.47025564447167,33.521180878859
1743293045122,20:04:05.122,-1,961.904761904762,5.46515041288561,33.521180878859
1743293045141,20:04:05.141,-1,959.70695970696,5.46004518129954,33.521180878859
1743293045161,20:04:05.161,-1,964.835164835165,5.45493994971347,33.521180878859
1743293045180,20:04:05.180,-1,986.080586080586,5.45493994971347,33.521180878859
1743293045200,20:04:05.200,-1,1054.21245421245,5.4498347181274,33.521180878859
1743293045219,20:04:05.219,-1,1150.91575091575,5.44472948654133,33.521180878859
1743293045239,20:04:05.239,-1,1255.67765567766,5.43962425495527,33.521180878859
1743293045258,20:04:05.258,-1,1347.98534798535,5.42941379178313,33.521180878859
1743293045278,20:04:05.278,-1,1422.71062271062,5.42430856019706,33.521180878859
1743293045297,20:04:05.297,-1,1468.86446886447,5.41920332861099,33.521180878859
1743293045317,20:04:05.317,-1,1492.30769230769,5.41409809702493,33.521180878859
1743293045336,20:04:05.336,-1,1508.42490842491,5.40899286543886,33.521180878859
1743293045356,20:04:05.356,-1,1526.73992673993,5.40388763385279,33.521180878859
1743293045375,20:04:05.375,-1,1525.27472527473,5.39878240226672,33.521180878859
1743293045395,20:04:05.395,-1,1520.14652014652,5.38857193909459,33.521180878859
1743293045414,20:04:05.414,-1,1482.78388278388,5.38857193909459,33.521180878859
1743293045434,20:04:05.434,-1,1428.57142857143,5.37836147592245,33.521180878859
1743293045453,20:04:05.453,-1,1379.48717948718,5.37836147592245,33.521180878859
1743293045473,20:04:05.473,-1,1331.86813186813,5.36815101275032,33.521180878859
1743293045492,20:04:05.492,-1,1290.84249084249,5.36304578116425,33.521180878859
1743293045512,20:04:05.512,-1,1260.07326007326,5.35283531799211,33.521180878859
1743293045531,20:04:05.531,-1,1238.82783882784,5.34262485481998,33.521180878859
1743293045551,20:04:05.551,-1,1221.97802197802,5.33241439164784,33.521180878859
1743293045570,20:04:05.570,-1,1210.25641025641,5.31709869688964,33.521180878859
1743293045590,20:04:05.590,-1,1202.9304029304,5.30178300213143,33.521180878859
1743293045609,20:04:05.609,-1,1189.74358974359,5.2915725389593,33.521180878859
1743293045629,20:04:05.629,-1,1173.62637362637,5.28136207578716,33.521180878859
1743293045648,20:04:05.648,-1,1140.65934065934,5.27115161261503,33.521180878859
1743293045668,20:04:05.668,-1,1114.28571428571,5.26094114944289,33.521180878859
1743293045687,20:04:05.687,-1,1109.15750915751,5.25583591785682,33.521180878859
1743293045707,20:04:05.707,-1,1112.08791208791,5.25073068627075,33.5261841042666
1743293045726,20:04:05.726,-1,1098.9010989011,5.24562545468469,33.5261841042666
1743293045746,20:04:05.746,-1,1086.44688644689,5.24562545468469,33.5261841042666
1743293045765,20:04:05.765,-1,1071.06227106227,5.24052022309862,33.5261841042666
1743293045785,20:04:05.785,-1,1070.32967032967,5.23541499151255,33.5261841042666
1743293045804,20:04:05.804,-1,1066.66666666667,5.23541499151255,33.5261841042666
1743293045824,20:04:05.824,-1,1063.00366300366,5.23030975992649,33.5261841042666
1743293045843,20:04:05.843,-1,1057.14285714286,5.23030975992649,33.5261841042666
1743293045863,20:04:05.863,-1,1047.61904761905,5.22520452834042,33.5261841042666
1743293045882,20:04:05.882,-1,1046.88644688645,5.22009929675435,33.5261841042666
1743293045902,20:04:05.902,-1,1048.35164835165,5.21499406516828,33.5261841042666
1743293045921,20:04:05.921,-1,1054.21245421245,5.21499406516828,33.5261841042666
1743293045941,20:04:05.941,-1,1046.88644688645,5.21499406516828,33.5261841042666
1743293045960,20:04:05.960,-1,1032.96703296703,5.20988883358221,33.5261841042666
1743293045980,20:04:05.980,-1,1038.82783882784,5.20988883358221,33.5261841042666
1743293045999,20:04:05.999,-1,1043.95604395604,5.20988883358221,33.5261841042666
1743293046019,20:04:06.019,-1,1070.32967032967,5.20478360199614,33.5261841042666
1743293046038,20:04:06.038,-1,1121.61172161172,5.20478360199614,33.5261841042666
1743293046058,20:04:06.058,-1,1189.01098901099,5.19967837041008,33.5261841042666
1743293046077,20:04:06.077,-1,1261.53846153846,5.19457313882401,33.5261841042666
1743293046097,20:04:06.097,-1,1323.80952380952,5.18946790723794,33.5261841042666
1743293046116,20:04:06.116,-1,1372.89377289377,5.17925744406581,33.5261841042666
1743293046136,20:04:06.136,-1,1411.72161172161,5.16904698089367,33.5261841042666
1743293046155,20:04:06.155,-1,1419.78021978022,5.1639417493076,33.5261841042666
1743293046175,20:04:06.175,-1,1413.91941391941,5.15373128613547,33.5261841042666
1743293046194,20:04:06.194,-1,1420.51282051282,5.1486260545494,33.5261841042666
1743293046214,20:04:06.214,-1,1429.30402930403,5.14352082296333,33.5261841042666
1743293046233,20:04:06.233,-1,1419.04761904762,5.14352082296333,33.5261841042666
1743293046253,20:04:06.253,-1,1402.1978021978,5.13841559137726,33.5261841042666
1743293046272,20:04:06.272,-1,1381.68498168498,5.13841559137726,33.5261841042666
1743293046292,20:04:06.292,-1,1341.39194139194,5.13331035979119,33.5261841042666
1743293046311,20:04:06.311,-1,1304.7619047619,5.13331035979119,33.5261841042666
1743293046331,20:04:06.331,-1,1283.51648351648,5.12820512820513,33.5261841042666
1743293046350,20:04:06.350,-1,1265.93406593407,5.12820512820513,33.5261841042666
1743293046370,20:04:06.370,-1,1246.88644688645,5.12309989661906,33.5261841042666
1743293046389,20:04:06.389,-1,1237.36263736264,5.11799466503299,33.5261841042666
1743293046409,20:04:06.409,-1,1245.42124542125,5.11799466503299,33.5261841042666
1743293046428,20:04:06.428,-1,1249.81684981685,5.11799466503299,33.5261841042666
1743293046448,20:04:06.448,-1,1232.23443223443,5.11288943344692,33.5261841042666
1743293046467,20:04:06.467,-1,1216.11721611722,5.11288943344692,33.5261841042666
1743293046487,20:04:06.487,-1,1195.6043956044,5.11288943344692,33.5261841042666
1743293046506,20:04:06.506,-1,1171.42857142857,5.11288943344692,33.5261841042666
1743293046526,20:04:06.526,-1,1162.63736263736,5.10778420186086,33.5261841042666
1743293046545,20:04:06.545,-1,1147.98534798535,5.10778420186086,33.5261841042666
1743293046565,20:04:06.565,-1,1145.05494505494,5.10778420186086,33.5261841042666
1743293046584,20:04:06.584,-1,1146.52014652015,5.10778420186086,33.5261841042666
1743293046604,20:04:06.604,-1,1146.52014652015,5.10267897027479,33.5261841042666
1743293046623,20:04:06.623,-1,1134.79853479853,5.10267897027479,33.5261841042666
1743293046643,20:04:06.643,-1,1121.61172161172,5.10267897027479,33.5261841042666
1743293046662,20:04:06.662,-1,1123.80952380952,5.10267897027479,33.5261841042666
1743293046682,20:04:06.682,-1,1126.73992673993,5.10267897027479,33.5261841042666
1743293046701,20:04:06.701,-1,1131.86813186813,5.10267897027479,33.5161776476307
1743293046721,20:04:06.721,-1,1128.20512820513,5.10267897027479,33.5161776476307
1743293046740,20:04:06.740,-1,1116.48351648352,5.10267897027479,33.5161776476307
1743293046760,20:04:06.760,-1,1109.89010989011,5.09757373868872,33.5161776476307
1743293046779,20:04:06.779,-1,1106.22710622711,5.09757373868872,33.5161776476307
1743293046799,20:04:06.799,-1,1095.9706959707,5.09757373868872,33.5161776476307
1743293046818,20:04:06.818,-1,1093.04029304029,5.09757373868872,33.5161776476307
1743293046838,20:04:06.838,-1,1111.35531135531,5.09757373868872,33.5161776476307
1743293046857,20:04:06.857,-1,1152.38095238095,5.09757373868872,33.5161776476307
1743293046877,20:04:06.877,-1,1222.71062271062,5.09246850710265,33.5161776476307
1743293046896,20:04:06.896,-1,1299.6336996337,5.09246850710265,33.5161776476307
1743293046916,20:04:06.916,-1,1348.71794871795,5.09246850710265,33.5161776476307
1743293046935,20:04:06.935,-1,1393.40659340659,5.09246850710265,33.5161776476307
1743293046955,20:04:06.955,-1,1421.24542124542,5.08736327551658,33.5161776476307
1743293046974,20:04:06.974,-1,1423.44322344322,5.08736327551658,33.5161776476307
1743293046994,20:04:06.994,-1,1438.09523809524,5.09246850710265,33.5161776476307
1743293047013,20:04:07.013,-1,1439.56043956044,5.09246850710265,33.5161776476307
1743293047033,20:04:07.033,-1,1424.17582417582,5.09246850710265,33.5161776476307
1743293047052,20:04:07.052,-1,1406.59340659341,5.09246850710265,33.5161776476307
1743293047072,20:04:07.072,-1,1393.40659340659,5.08736327551658,33.5161776476307
1743293047091,20:04:07.091,-1,1372.16117216117,5.08736327551658,33.5161776476307
1743293047111,20:04:07.111,-1,1344.32234432234,5.08225804393052,33.5161776476307
1743293047130,20:04:07.130,-1,1328.93772893773,5.08225804393052,33.5161776476307
1743293047150,20:04:07.150,-1,1301.8315018315,5.07715281234445,33.5161776476307
1743293047169,20:04:07.169,-1,1286.44688644689,5.07204758075838,33.5161776476307
1743293047189,20:04:07.189,-1,1275.45787545788,5.07204758075838,33.5161776476307
1743293047208,20:04:07.208,-1,1263.73626373626,5.06694234917231,33.5161776476307
1743293047228,20:04:07.228,-1,1248.35164835165,5.06183711758625,33.5161776476307
1743293047247,20:04:07.247,-1,1243.22344322344,5.06183711758625,33.5161776476307
1743293047267,20:04:07.267,-1,1258.60805860806,5.05162665441411,33.5161776476307
1743293047286,20:04:07.286,-1,1270.32967032967,5.04652142282804,33.5161776476307
1743293047306,20:04:07.306,-1,1262.27106227106,5.04141619124197,33.5161776476307
1743293047325,20:04:07.325,-1,1241.75824175824,5.03631095965591,33.5161776476307
1743293047345,20:04:07.345,-1,1225.64102564103,5.03631095965591,33.5161776476307
1743293047364,20:04:07.364,-1,1211.72161172161,5.03120572806984,33.5161776476307
1743293047384,20:04:07.384,-1,1199.2673992674,5.03120572806984,33.5161776476307
1743293047403,20:04:07.403,-1,1186.81318681319,5.03120572806984,33.5161776476307
1743293047423,20:04:07.423,-1,1177.28937728938,5.02610049648377,33.5161776476307
1743293047442,20:04:07.442,-1,1161.90476190476,5.02610049648377,33.5161776476307
1743293047462,20:04:07.462,-1,1162.63736263736,5.02610049648377,33.5161776476307
1743293047481,20:04:07.481,-1,1156.04395604396,5.02610049648377,33.5161776476307
1743293047501,20:04:07.501,-1,1136.99633699634,5.02610049648377,33.5161776476307
1743293047521,20:04:07.520,-1,1117.94871794872,5.02610049648377,33.5161776476307
1743293047540,20:04:07.540,-1,1117.94871794872,5.02610049648377,33.5161776476307
1743293047560,20:04:07.559,-1,1121.61172161172,5.03120572806984,33.5161776476307
1743293047579,20:04:07.579,-1,1136.26373626374,5.03120572806984,33.5161776476307
1743293047599,20:04:07.598,-1,1163.36996336996,5.02610049648377,33.5161776476307
1743293047618,20:04:07.618,-1,1221.97802197802,5.02610049648377,33.5161776476307
1743293047638,20:04:07.638,-1,1301.8315018315,5.02610049648377,33.5161776476307
1743293047657,20:04:07.657,-1,1379.48717948718,5.0209952648977,33.5161776476307
1743293047677,20:04:07.677,-1,1443.95604395604,5.0209952648977,33.5161776476307
1743293047696,20:04:07.696,-1,1494.50549450549,5.02610049648377,33.5361905376194
1743293047716,20:04:07.716,-1,1529.67032967033,5.02610049648377,33.5361905376194
1743293047735,20:04:07.735,-1,1538.46153846154,5.03120572806984,33.5361905376194
1743293047755,20:04:07.755,-1,1523.80952380952,5.04141619124197,33.5361905376194
1743293047774,20:04:07.774,-1,1520.87912087912,5.04652142282804,33.5361905376194
1743293047794,20:04:07.794,-1,1538.46153846154,5.05162665441411,33.5361905376194
1743293047813,20:04:07.813,-1,1541.39194139194,5.06183711758625,33.5361905376194
1743293047833,20:04:07.833,-1,1522.34432234432,5.07204758075838,33.5361905376194
1743293047852,20:04:07.852,-1,1495.2380952381,5.08736327551658,33.5361905376194
1743293047872,20:04:07.872,-1,1463.73626373626,5.10267897027479,33.5361905376194
1743293047891,20:04:07.891,-1,1438.09523809524,5.12309989661906,33.5361905376194
1743293047911,20:04:07.911,-1,1411.72161172161,5.13331035979119,33.5361905376194
1743293047930,20:04:07.930,-1,1380.95238095238,5.14352082296333,33.5361905376194
1743293047950,20:04:07.950,-1,1378.02197802198,5.15373128613547,33.5361905376194
1743293047969,20:04:07.969,-1,1377.28937728938,5.15883651772153,33.5361905376194
1743293047989,20:04:07.989,-1,1382.41758241758,5.1639417493076,33.5361905376194
1743293048008,20:04:08.008,-1,1375.09157509157,5.1639417493076,33.5361905376194
1743293048028,20:04:08.028,-1,1358.97435897436,5.16904698089367,33.5361905376194
1743293048047,20:04:08.047,-1,1334.06593406593,5.16904698089367,33.5361905376194
1743293048067,20:04:08.067,-1,1317.21611721612,5.16904698089367,33.5361905376194
1743293048086,20:04:08.086,-1,1304.7619047619,5.1639417493076,33.5361905376194
1743293048106,20:04:08.106,-1,1295.2380952381,5.1639417493076,33.5361905376194
1743293048125,20:04:08.125,-1,1279.85347985348,5.15883651772153,33.5361905376194
1743293048145,20:04:08.145,-1,1260.80586080586,5.15883651772153,33.5361905376194
1743293048164,20:04:08.164,-1,1254.21245421245,5.15883651772153,33.5361905376194
1743293048184,20:04:08.184,-1,1243.95604395604,5.15373128613547,33.5361905376194
1743293048203,20:04:08.203,-1,1231.50183150183,5.15373128613547,33.5361905376194
1743293048223,20:04:08.223,-1,1230.03663003663,5.15373128613547,33.5361905376194
1743293048242,20:04:08.242,-1,1239.56043956044,5.15373128613547,33.5361905376194
1743293048262,20:04:08.262,-1,1245.42124542125,5.15373128613547,33.5361905376194
1743293048281,20:04:08.281,-1,1238.09523809524,5.15373128613547,33.5361905376194
1743293048301,20:04:08.301,-1,1222.71062271062,5.1486260545494,33.5361905376194
1743293048320,20:04:08.320,-1,1207.32600732601,5.1486260545494,33.5361905376194
1743293048340,20:04:08.340,-1,1185.34798534799,5.14352082296333,33.5361905376194
1743293048359,20:04:08.359,-1,1170.69597069597,5.13841559137726,33.5361905376194
1743293048379,20:04:08.379,-1,1173.62637362637,5.13331035979119,33.5361905376194
1743293048398,20:04:08.398,-1,1183.15018315018,5.13331035979119,33.5361905376194
1743293048418,20:04:08.418,-1,1207.32600732601,5.12820512820513,33.5361905376194
1743293048437,20:04:08.437,-1,1260.07326007326,5.12309989661906,33.5361905376194
1743293048457,20:04:08.457,-1,1345.05494505494,5.11799466503299,33.5361905376194
1743293048476,20:04:08.476,-1,1447.61904761905,5.10778420186086,33.5361905376194
1743293048496,20:04:08.496,-1,1547.98534798535,5.10267897027479,33.5361905376194
1743293048515,20:04:08.515,-1,1621.24542124542,5.09757373868872,33.5361905376194
1743293048535,20:04:08.535,-1,1688.64468864469,5.09246850710265,33.5361905376194
1743293048554,20:04:08.554,-1,1750.91575091575,5.08736327551658,33.5361905376194
1743293048574,20:04:08.574,-1,1793.40659340659,5.08225804393052,33.5361905376194
1743293048593,20:04:08.593,-1,1820.51282051282,5.07715281234445,33.5361905376194
1743293048613,20:04:08.613,-1,1829.30402930403,5.07204758075838,33.5361905376194
1743293048632,20:04:08.632,-1,1839.56043956044,5.07204758075838,33.5361905376194
1743293048652,20:04:08.652,-1,1843.22344322344,5.06694234917231,33.5361905376194
1743293048671,20:04:08.671,-1,1827.10622710623,5.06183711758625,33.5361905376194
1743293048691,20:04:08.691,-1,1781.68498168498,5.05673188600018,33.5261841042666
1743293048710,20:04:08.710,-1,1730.40293040293,5.05673188600018,33.5261841042666
1743293048730,20:04:08.730,-1,1692.30769230769,5.05162665441411,33.5261841042666
1743293048749,20:04:08.749,-1,1660.80586080586,5.05162665441411,33.5261841042666
1743293048769,20:04:08.769,-1,1629.30402930403,5.04652142282804,33.5261841042666
1743293048788,20:04:08.788,-1,1601.4652014652,5.04652142282804,33.5261841042666
1743293048808,20:04:08.808,-1,1578.75457875458,5.04141619124197,33.5261841042666
1743293048827,20:04:08.827,-1,1553.84615384615,5.04141619124197,33.5261841042666
1743293048847,20:04:08.847,-1,1528.20512820513,5.04141619124197,33.5261841042666
1743293048866,20:04:08.866,-1,1517.94871794872,5.04141619124197,33.5261841042666
1743293048886,20:04:08.886,-1,1508.42490842491,5.04141619124197,33.5261841042666
1743293048905,20:04:08.905,-1,1491.57509157509,5.04141619124197,33.5261841042666
1743293048925,20:04:08.925,-1,1463.73626373626,5.04141619124197,33.5261841042666
1743293048944,20:04:08.944,-1,1421.24542124542,5.03631095965591,33.5261841042666
1743293048964,20:04:08.964,-1,1389.01098901099,5.03631095965591,33.5261841042666
1743293048983,20:04:08.983,-1,1353.84615384615,5.03631095965591,33.5261841042666
1743293049003,20:04:09.003,-1,1334.06593406593,5.03631095965591,33.5261841042666
1743293049022,20:04:09.022,-1,1320.87912087912,5.03120572806984,33.5261841042666
1743293049042,20:04:09.042,-1,1329.67032967033,5.03120572806984,33.5261841042666
1743293049061,20:04:09.061,-1,1332.60073260073,5.02610049648377,33.5261841042666
1743293049081,20:04:09.081,-1,1323.07692307692,5.02610049648377,33.5261841042666
1743293049100,20:04:09.100,-1,1300.3663003663,5.02610049648377,33.5261841042666
1743293049120,20:04:09.120,-1,1282.78388278388,5.0209952648977,33.5261841042666
1743293049139,20:04:09.139,-1,1277.65567765568,5.0209952648977,33.5261841042666
1743293049159,20:04:09.159,-1,1277.65567765568,5.01589003331164,33.5261841042666
1743293049178,20:04:09.178,-1,1270.32967032967,5.0056795701395,33.5261841042666
1743293049198,20:04:09.198,-1,1260.07326007326,5.00057433855343,33.5261841042666
1743293049217,20:04:09.217,-1,1248.35164835165,4.98525864379523,33.5261841042666
1743293049237,20:04:09.237,-1,1239.56043956044,4.96483771745096,33.5261841042666
1743293049256,20:04:09.256,-1,1230.03663003663,4.94952202269275,33.5261841042666
1743293049276,20:04:09.276,-1,1228.57142857143,4.93931155952062,33.5261841042666
1743293049295,20:04:09.295,-1,1271.06227106227,4.93420632793455,33.5261841042666
1743293049315,20:04:09.315,-1,1378.02197802198,4.92910109634848,33.5261841042666
1743293049334,20:04:09.334,-1,1515.01831501831,4.92910109634848,33.5261841042666
1743293049354,20:04:09.354,-1,1656.41025641026,4.92399586476242,33.5261841042666
1743293049373,20:04:09.373,-1,1769.23076923077,4.92399586476242,33.5261841042666
1743293049393,20:04:09.393,-1,1845.42124542125,4.92399586476242,33.5261841042666
1743293049412,20:04:09.412,-1,1915.01831501831,4.92399586476242,33.5261841042666
1743293049432,20:04:09.432,-1,1971.42857142857,4.92399586476242,33.5261841042666
1743293049451,20:04:09.451,-1,1991.20879120879,4.92910109634848,33.5261841042666
1743293049471,20:04:09.471,-1,1983.88278388278,4.92910109634848,33.5261841042666
1743293049490,20:04:09.490,-1,1963.36996336996,4.93420632793455,33.5261841042666
1743293049510,20:04:09.510,-1,1933.33333333333,4.93931155952062,33.5261841042666
1743293049529,20:04:09.529,-1,1893.77289377289,4.94441679110669,33.5261841042666
1743293049549,20:04:09.549,-1,1828.57142857143,4.95462725427882,33.5261841042666
1743293049568,20:04:09.568,-1,1767.76556776557,4.95973248586489,33.5261841042666
1743293049588,20:04:09.588,-1,1723.80952380952,4.96994294903702,33.5261841042666
1743293049607,20:04:09.607,-1,1688.64468864469,4.97504818062309,33.5261841042666
1743293049627,20:04:09.627,-1,1652.74725274725,4.98015341220916,33.5261841042666
1743293049646,20:04:09.646,-1,1614.65201465201,4.98525864379523,33.5261841042666
1743293049666,20:04:09.666,-1,1581.68498168498,4.99546910696736,33.5261841042666
1743293049685,20:04:09.685,-1,1567.76556776557,4.99546910696736,33.5261841042666
1743293049705,20:04:09.705,-1,1558.97435897436,4.99546910696736,33.5261841042666
1743293049724,20:04:09.724,-1,1528.20512820513,4.99546910696736,33.5261841042666
1743293049744,20:04:09.744,-1,1479.85347985348,4.99546910696736,33.5261841042666
1743293049763,20:04:09.763,-1,1462.27106227106,4.99546910696736,33.5261841042666
1743293049783,20:04:09.783,-1,1436.63003663004,5.00057433855343,33.5261841042666
1743293049802,20:04:09.802,-1,1406.59340659341,5.0056795701395,33.5261841042666
1743293049822,20:04:09.822,-1,1390.47619047619,5.01078480172557,33.5261841042666
1743293049841,20:04:09.841,-1,1376.55677655678,5.01589003331164,33.5261841042666
1743293049861,20:04:09.861,-1,1362.63736263736,5.0209952648977,33.5261841042666
1743293049880,20:04:09.880,-1,1343.58974358974,5.02610049648377,33.5261841042666
1743293049900,20:04:09.900,-1,1328.20512820513,5.03120572806984,33.5261841042666
1743293049919,20:04:09.919,-1,1324.54212454212,5.03631095965591,33.5261841042666
1743293049939,20:04:09.939,-1,1319.41391941392,5.04652142282804,33.5261841042666
1743293049958,20:04:09.958,-1,1301.8315018315,5.05673188600018,33.5261841042666
1743293049978,20:04:09.978,-1,1284.98168498168,5.06694234917231,33.5261841042666
1743293049997,20:04:09.997,-1,1257.87545787546,5.07715281234445,33.5261841042666
1743293050017,20:04:10.017,-1,1235.89743589744,5.08736327551658,33.5261841042666
1743293050036,20:04:10.036,-1,1224.90842490842,5.09757373868872,33.5261841042666
1743293050056,20:04:10.056,-1,1210.98901098901,5.11288943344692,33.5261841042666
1743293050075,20:04:10.075,-1,1197.8021978022,5.12820512820513,33.5261841042666
1743293050095,20:04:10.095,-1,1172.89377289377,5.14352082296333,33.5261841042666
1743293050114,20:04:10.114,-1,1160.43956043956,5.15373128613547,33.5261841042666
1743293050134,20:04:10.134,-1,1194.13919413919,5.1639417493076,33.5261841042666
1743293050153,20:04:10.153,-1,1302.5641025641,5.17415221247974,33.5261841042666
1743293050173,20:04:10.173,-1,1446.88644688645,5.18436267565187,33.5261841042666
1743293050192,20:04:10.192,-1,1617.58241758242,5.19457313882401,33.5261841042666
1743293050212,20:04:10.212,-1,1778.75457875458,5.20988883358221,33.5261841042666
1743293050231,20:04:10.231,-1,1887.17948717949,5.22009929675435,33.5261841042666
1743293050251,20:04:10.251,-1,1950.18315018315,5.23030975992649,33.5261841042666
1743293050270,20:04:10.270,-1,1971.42857142857,5.24052022309862,33.5261841042666
1743293050290,20:04:10.290,-1,1970.69597069597,5.24562545468469,33.5261841042666
1743293050309,20:04:10.309,-1,1946.52014652015,5.26094114944289,33.5261841042666
1743293050329,20:04:10.329,-1,1910.62271062271,5.26604638102896,33.5261841042666
1743293050348,20:04:10.348,-1,1873.99267399267,5.27115161261503,33.5261841042666
1743293050368,20:04:10.368,-1,1827.10622710623,5.28136207578716,33.5261841042666
1743293050387,20:04:10.387,-1,1758.97435897436,5.2915725389593,33.5261841042666
1743293050407,20:04:10.407,-1,1694.50549450549,5.29667777054536,33.5261841042666
1743293050426,20:04:10.426,-1,1627.83882783883,5.3068882337175,33.5261841042666
1743293050446,20:04:10.446,-1,1579.48717948718,5.31199346530357,33.5261841042666
1743293050465,20:04:10.465,-1,1550.91575091575,5.32220392847571,33.5261841042666
1743293050485,20:04:10.485,-1,1526.00732600733,5.32730916006177,33.5261841042666
1743293050504,20:04:10.504,-1,1512.82051282051,5.33241439164784,33.5261841042666
1743293050524,20:04:10.524,-1,1506.22710622711,5.33751962323391,33.5261841042666
1743293050543,20:04:10.543,-1,1492.30769230769,5.34262485481998,33.5261841042666
1743293050563,20:04:10.563,-1,1471.06227106227,5.35283531799211,33.5261841042666
1743293050582,20:04:10.582,-1,1442.49084249084,5.35794054957818,33.5261841042666
1743293050602,20:04:10.602,-1,1398.5347985348,5.36304578116425,33.5261841042666
1743293050621,20:04:10.621,-1,1359.70695970696,5.37325624433638,33.5261841042666
1743293050641,20:04:10.641,-1,1326.00732600733,5.37325624433638,33.5261841042666
1743293050660,20:04:10.660,-1,1298.9010989011,5.38346670750852,33.5261841042666
1743293050680,20:04:10.680,-1,1271.06227106227,5.38857193909459,33.5311873238534
1743293050699,20:04:10.699,-1,1231.50183150183,5.39367717068065,33.5311873238534
1743293050719,20:04:10.719,-1,1200.7326007326,5.40388763385279,33.5311873238534
1743293050738,20:04:10.738,-1,1192.67399267399,5.40899286543886,33.5311873238534
1743293050758,20:04:10.758,-1,1186.08058608059,5.41409809702493,33.5311873238534
1743293050777,20:04:10.777,-1,1172.16117216117,5.42430856019706,33.5311873238534
1743293050797,20:04:10.797,-1,1168.49816849817,5.4345190233692,33.5311873238534
1743293050816,20:04:10.816,-1,1173.62637362637,5.44472948654133,33.5311873238534
1743293050836,20:04:10.836,-1,1161.90476190476,5.45493994971347,33.5311873238534
1743293050855,20:04:10.855,-1,1156.77655677656,5.46515041288561,33.5311873238534
1743293050875,20:04:10.875,-1,1165.56776556777,5.47025564447167,33.5311873238534
1743293050894,20:04:10.894,-1,1171.42857142857,5.48046610764381,33.5311873238534
1743293050914,20:04:10.914,-1,1183.88278388278,5.48557133922987,33.5311873238534
1743293050933,20:04:10.933,-1,1241.75824175824,5.49067657081594,33.5311873238534
1743293050953,20:04:10.953,-1,1369.96336996337,5.49578180240201,33.5311873238534
1743293050972,20:04:10.972,-1,1525.27472527473,5.50088703398808,33.5311873238534
1743293050992,20:04:10.992,-1,1665.93406593407,5.50599226557415,33.5311873238534
1743293051011,20:04:11.011,-1,1794.13919413919,5.50599226557415,33.5311873238534
1743293051031,20:04:11.031,-1,1880.58608058608,5.51109749716022,33.5311873238534
1743293051050,20:04:11.050,-1,1915.75091575092,5.51109749716022,33.5311873238534
1743293051070,20:04:11.070,-1,1920.14652014652,5.51109749716022,33.5311873238534
1743293051089,20:04:11.089,-1,1898.1684981685,5.51109749716022,33.5311873238534
1743293051109,20:04:11.109,-1,1871.06227106227,5.51109749716022,33.5311873238534
1743293051128,20:04:11.128,-1,1843.22344322344,5.51620272874628,33.5311873238534
1743293051148,20:04:11.148,-1,1792.67399267399,5.51620272874628,33.5311873238534
1743293051167,20:04:11.167,-1,1741.39194139194,5.51620272874628,33.5311873238534
1743293051187,20:04:11.187,-1,1670.32967032967,5.52130796033235,33.5311873238534
1743293051206,20:04:11.206,-1,1584.61538461538,5.52130796033235,33.5311873238534
1743293051226,20:04:11.226,-1,1508.42490842491,5.52130796033235,33.5311873238534
1743293051245,20:04:11.245,-1,1483.51648351648,5.52130796033235,33.5311873238534
1743293051265,20:04:11.265,-1,1471.06227106227,5.52130796033235,33.5311873238534
1743293051284,20:04:11.284,-1,1457.87545787546,5.52641319191842,33.5311873238534
1743293051304,20:04:11.304,-1,1445.42124542125,5.52641319191842,33.5311873238534
1743293051323,20:04:11.323,-1,1433.69963369963,5.53151842350448,33.5311873238534
1743293051343,20:04:11.343,-1,1415.38461538462,5.53151842350448,33.5311873238534
1743293051362,20:04:11.362,-1,1378.02197802198,5.53151842350448,33.5311873238534
1743293051382,20:04:11.382,-1,1331.13553113553,5.53662365509055,33.5311873238534
1743293051401,20:04:11.401,-1,1285.71428571429,5.53662365509055,33.5311873238534
1743293051421,20:04:11.421,-1,1254.94505494505,5.53662365509055,33.5311873238534
1743293051440,20:04:11.440,-1,1236.63003663004,5.54172888667662,33.5311873238534
1743293051460,20:04:11.460,-1,1219.78021978022,5.54172888667662,33.5311873238534
1743293051479,20:04:11.479,-1,1197.0695970696,5.54683411826269,33.5311873238534
1743293051499,20:04:11.499,-1,1164.83516483516,5.55193934984876,33.5311873238534
1743293051518,20:04:11.518,-1,1142.85714285714,5.55704458143483,33.5311873238534
1743293051538,20:04:11.538,-1,1146.52014652015,5.55704458143483,33.5311873238534
1743293051557,20:04:11.557,-1,1155.31135531136,5.56725504460696,33.5311873238534
1743293051577,20:04:11.577,-1,1152.38095238095,5.57236027619303,33.5311873238534
1743293051596,20:04:11.596,-1,1142.85714285714,5.5774655077791,33.5311873238534
1743293051616,20:04:11.616,-1,1128.20512820513,5.58257073936516,33.5311873238534
1743293051635,20:04:11.635,-1,1119.41391941392,5.5927812025373,33.5311873238534
1743293051655,20:04:11.655,-1,1101.8315018315,5.59788643412337,33.5311873238534
1743293051674,20:04:11.674,-1,1090.10989010989,5.60299166570943,33.5311873238534
1743293051694,20:04:11.694,-1,1104.0293040293,5.61320212888157,33.5311873238534
1743293051713,20:04:11.713,-1,1145.78754578755,5.62341259205371,33.5311873238534
1743293051733,20:04:11.733,-1,1243.22344322344,5.62851782363977,33.5311873238534
1743293051752,20:04:11.752,-1,1386.81318681319,5.63872828681191,33.5311873238534
1743293051772,20:04:11.772,-1,1526.00732600733,5.64893874998404,33.5311873238534
1743293051791,20:04:11.791,-1,1638.82783882784,5.65914921315618,33.5311873238534
1743293051811,20:04:11.811,-1,1722.34432234432,5.66425444474225,33.5311873238534
1743293051830,20:04:11.830,-1,1777.28937728938,5.67446490791438,33.5311873238534
1743293051850,20:04:11.850,-1,1812.45421245421,5.68467537108652,33.5311873238534
1743293051869,20:04:11.869,-1,1810.98901098901,5.69488583425865,33.5311873238534
1743293051889,20:04:11.889,-1,1805.12820512821,5.69999106584472,33.5311873238534
1743293051908,20:04:11.908,-1,1791.20879120879,5.71020152901686,33.5311873238534
1743293051928,20:04:11.928,-1,1756.04395604396,5.72551722377506,33.5311873238534
1743293051947,20:04:11.947,-1,1701.8315018315,5.74083291853327,33.5311873238534
1743293051967,20:04:11.967,-1,1634.43223443223,5.75614861329147,33.5311873238534
1743293051986,20:04:11.986,-1,1575.82417582418,5.7663590764636,33.5311873238534
1743293052006,20:04:12.006,-1,1522.34432234432,5.78167477122181,33.5311873238534
1743293052025,20:04:12.025,-1,1481.31868131868,5.79699046598001,33.5311873238534
1743293052045,20:04:12.045,-1,1456.41025641026,5.81741139232428,33.5311873238534
1743293052064,20:04:12.064,-1,1440.29304029304,5.83272708708249,33.5311873238534
1743293052084,20:04:12.084,-1,1420.51282051282,5.84293755025462,33.5311873238534
1743293052103,20:04:12.103,-1,1397.8021978022,5.85314801342676,33.5311873238534
1743293052123,20:04:12.123,-1,1374.35897435897,5.85825324501283,33.5311873238534
1743293052142,20:04:12.142,-1,1351.64835164835,5.86846370818496,33.5311873238534
1743293052162,20:04:12.162,-1,1328.93772893773,5.8786741713571,33.5311873238534
1743293052181,20:04:12.181,-1,1297.4358974359,5.88377940294317,33.5311873238534
1743293052201,20:04:12.201,-1,1272.52747252747,5.8939898661153,33.5311873238534
1743293052220,20:04:12.220,-1,1249.81684981685,5.90420032928744,33.5311873238534
1743293052240,20:04:12.240,-1,1229.30402930403,5.90930556087351,33.5311873238534
1743293052259,20:04:12.259,-1,1216.11721611722,5.91441079245957,33.5311873238534
1743293052279,20:04:12.279,-1,1204.3956043956,5.91951602404564,33.5311873238534
1743293052298,20:04:12.298,-1,1179.48717948718,5.92462125563171,33.5311873238534
1743293052318,20:04:12.318,-1,1162.63736263736,5.92462125563171,33.5311873238534
1743293052337,20:04:12.337,-1,1156.77655677656,5.92972648721778,33.5311873238534
1743293052357,20:04:12.357,-1,1150.91575091575,5.93483171880384,33.5311873238534
1743293052376,20:04:12.376,-1,1142.85714285714,5.93483171880384,33.5311873238534
1743293052396,20:04:12.396,-1,1133.33333333333,5.93483171880384,33.5311873238534
1743293052415,20:04:12.415,-1,1125.27472527473,5.93993695038991,33.5311873238534
1743293052435,20:04:12.435,-1,1128.20512820513,5.93993695038991,33.5311873238534
1743293052454,20:04:12.454,-1,1133.33333333333,5.94504218197598,33.5311873238534
1743293052474,20:04:12.474,-1,1123.80952380952,5.94504218197598,33.5311873238534
1743293052493,20:04:12.493,-1,1120.14652014652,5.94504218197598,33.5311873238534
1743293052513,20:04:12.513,-1,1131.13553113553,5.94504218197598,33.5311873238534
1743293052532,20:04:12.532,-1,1175.82417582418,5.95014741356205,33.5311873238534
1743293052552,20:04:12.552,-1,1245.42124542125,5.95014741356205,33.5311873238534
1743293052571,20:04:12.571,-1,1347.25274725275,5.95014741356205,33.5311873238534
1743293052591,20:04:12.591,-1,1460.07326007326,5.95014741356205,33.5311873238534
1743293052610,20:04:12.610,-1,1557.50915750916,5.95525264514812,33.5311873238534
1743293052630,20:04:12.630,-1,1624.90842490842,5.95014741356205,33.5311873238534
1743293052649,20:04:12.649,-1,1655.67765567766,5.95014741356205,33.5311873238534
1743293052669,20:04:12.669,-1,1676.92307692308,5.94504218197598,33.5261841042666
1743293052688,20:04:12.688,-1,1702.5641025641,5.94504218197598,33.5261841042666
1743293052708,20:04:12.708,-1,1705.49450549451,5.94504218197598,33.5261841042666
1743293052727,20:04:12.727,-1,1696.7032967033,5.94504218197598,33.5261841042666
1743293052747,20:04:12.747,-1,1665.20146520146,5.94504218197598,33.5261841042666
1743293052766,20:04:12.766,-1,1618.31501831502,5.94504218197598,33.5261841042666
1743293052786,20:04:12.786,-1,1578.02197802198,5.94504218197598,33.5261841042666
1743293052805,20:04:12.805,-1,1537.72893772894,5.94504218197598,33.5261841042666
1743293052825,20:04:12.825,-1,1494.50549450549,5.94504218197598,33.5261841042666
1743293052844,20:04:12.844,-1,1458.60805860806,5.93993695038991,33.5261841042666
1743293052864,20:04:12.864,-1,1430.03663003663,5.93993695038991,33.5261841042666
1743293052883,20:04:12.883,-1,1414.65201465201,5.93993695038991,33.5261841042666
1743293052903,20:04:12.903,-1,1397.8021978022,5.93993695038991,33.5261841042666
1743293052922,20:04:12.922,-1,1385.34798534799,5.93993695038991,33.5261841042666
1743293052942,20:04:12.942,-1,1369.23076923077,5.93993695038991,33.5261841042666
1743293052961,20:04:12.961,-1,1352.38095238095,5.93993695038991,33.5261841042666
1743293052981,20:04:12.981,-1,1335.53113553114,5.93483171880384,33.5261841042666
1743293053000,20:04:13.000,-1,1315.75091575092,5.93483171880384,33.5261841042666
1743293053020,20:04:13.020,-1,1288.64468864469,5.92972648721778,33.5261841042666
1743293053039,20:04:13.039,-1,1254.94505494505,5.92972648721778,33.5261841042666
1743293053059,20:04:13.059,-1,1222.71062271062,5.92462125563171,33.5261841042666
1743293053078,20:04:13.078,-1,1206.59340659341,5.92462125563171,33.5261841042666
1743293053098,20:04:13.098,-1,1205.86080586081,5.92462125563171,33.5261841042666
1743293053117,20:04:13.117,-1,1202.9304029304,5.91951602404564,33.5261841042666
1743293053137,20:04:13.137,-1,1198.5347985348,5.91441079245957,33.5261841042666
1743293053156,20:04:13.156,-1,1187.54578754579,5.90930556087351,33.5261841042666
1743293053176,20:04:13.176,-1,1180.21978021978,5.90930556087351,33.5261841042666
1743293053195,20:04:13.195,-1,1166.30036630037,5.90420032928744,33.5261841042666
1743293053215,20:04:13.215,-1,1150.91575091575,5.89909509770137,33.5261841042666
1743293053234,20:04:13.234,-1,1142.12454212454,5.89909509770137,33.5261841042666
1743293053254,20:04:13.254,-1,1126.73992673993,5.8939898661153,33.5261841042666
1743293053273,20:04:13.273,-1,1123.80952380952,5.88888463452923,33.5261841042666
1743293053293,20:04:13.293,-1,1130.40293040293,5.88888463452923,33.5261841042666
1743293053312,20:04:13.312,-1,1131.13553113553,5.88377940294317,33.5261841042666
1743293053332,20:04:13.332,-1,1128.93772893773,5.88377940294317,33.5261841042666
1743293053351,20:04:13.351,-1,1136.26373626374,5.8786741713571,33.5261841042666
1743293053371,20:04:13.371,-1,1163.36996336996,5.87356893977103,33.5261841042666
1743293053390,20:04:13.390,-1,1222.71062271062,5.87356893977103,33.5261841042666
1743293053410,20:04:13.410,-1,1309.15750915751,5.87356893977103,33.5261841042666
1743293053429,20:04:13.429,-1,1402.1978021978,5.86846370818496,33.5261841042666
1743293053449,20:04:13.449,-1,1485.71428571429,5.86846370818496,33.5261841042666
1743293053468,20:04:13.468,-1,1545.78754578755,5.86335847659889,33.5261841042666
1743293053488,20:04:13.488,-1,1569.96336996337,5.85825324501283,33.5261841042666
1743293053507,20:04:13.507,-1,1597.0695970696,5.85825324501283,33.5261841042666
1743293053527,20:04:13.527,-1,1627.10622710623,5.85825324501283,33.5261841042666
1743293053546,20:04:13.546,-1,1639.56043956044,5.85825324501283,33.5261841042666
1743293053566,20:04:13.566,-1,1649.81684981685,5.86335847659889,33.5261841042666
1743293053585,20:04:13.585,-1,1644.68864468864,5.86335847659889,33.5261841042666
1743293053605,20:04:13.605,-1,1621.97802197802,5.86846370818496,33.5261841042666
1743293053624,20:04:13.624,-1,1578.02197802198,5.87356893977103,33.5261841042666
1743293053644,20:04:13.644,-1,1521.61172161172,5.88377940294317,33.5261841042666
1743293053663,20:04:13.663,-1,1480.58608058608,5.88888463452923,33.5361905376194
1743293053683,20:04:13.683,-1,1464.46886446886,5.89909509770137,33.5361905376194
1743293053702,20:04:13.702,-1,1446.15384615385,5.90930556087351,33.5361905376194
1743293053722,20:04:13.722,-1,1418.31501831502,5.91951602404564,33.5361905376194
1743293053741,20:04:13.741,-1,1402.1978021978,5.92972648721778,33.5361905376194
1743293053761,20:04:13.761,-1,1391.20879120879,5.93993695038991,33.5361905376194
1743293053780,20:04:13.780,-1,1375.09157509157,5.95525264514812,33.5361905376194
1743293053800,20:04:13.800,-1,1360.43956043956,5.97056833990632,33.5361905376194
1743293053819,20:04:13.819,-1,1347.98534798535,5.98588403466452,33.5361905376194
1743293053839,20:04:13.839,-1,1331.13553113553,5.99609449783666,33.5361905376194
1743293053858,20:04:13.858,-1,1300.3663003663,6.00630496100879,33.5361905376194
1743293053878,20:04:13.878,-1,1275.45787545788,6.021620655767,33.5361905376194
1743293053897,20:04:13.897,-1,1253.47985347985,6.0369363505252,33.5361905376194
1743293053917,20:04:13.917,-1,1247.61904761905,6.0522520452834,33.5361905376194
1743293053936,20:04:13.936,-1,1241.02564102564,6.06756774004161,33.5361905376194
1743293053956,20:04:13.956,-1,1234.43223443223,6.08798866638588,33.5361905376194
1743293053975,20:04:13.975,-1,1220.51282051282,6.10330436114408,33.5361905376194
1743293053995,20:04:13.995,-1,1205.86080586081,6.11862005590229,33.5361905376194
1743293054014,20:04:14.014,-1,1192.67399267399,6.13904098224656,33.5361905376194
1743293054034,20:04:14.034,-1,1197.0695970696,6.15435667700476,33.5361905376194
1743293054053,20:04:14.053,-1,1193.40659340659,6.16967237176296,33.5361905376194
1743293054073,20:04:14.073,-1,1175.82417582418,6.18498806652117,33.5361905376194
1743293054092,20:04:14.092,-1,1161.17216117216,6.1951985296933,33.5361905376194
1743293054112,20:04:14.112,-1,1159.70695970696,6.21051422445151,33.5361905376194
1743293054131,20:04:14.131,-1,1151.64835164835,6.23093515079578,33.5361905376194
1743293054151,20:04:14.151,-1,1147.98534798535,6.24625084555398,33.5361905376194
1743293054170,20:04:14.170,-1,1145.78754578755,6.26156654031218,33.5361905376194
1743293054190,20:04:14.190,-1,1148.71794871795,6.28198746665646,33.5361905376194
1743293054209,20:04:14.209,-1,1169.23076923077,6.29730316141466,33.5361905376194
1743293054229,20:04:14.229,-1,1233.69963369963,6.31261885617286,33.5361905376194
1743293054248,20:04:14.248,-1,1317.21611721612,6.32793455093107,33.5361905376194
1743293054268,20:04:14.268,-1,1401.4652014652,6.34325024568927,33.5361905376194
1743293054287,20:04:14.287,-1,1481.31868131868,6.35856594044747,33.5361905376194
1743293054307,20:04:14.307,-1,1534.06593406593,6.36877640361961,33.5361905376194
1743293054326,20:04:14.326,-1,1561.90476190476,6.37388163520568,33.5361905376194
1743293054346,20:04:14.346,-1,1578.75457875458,6.38409209837781,33.5361905376194
1743293054365,20:04:14.365,-1,1591.94139194139,6.39430256154995,33.5361905376194
1743293054385,20:04:14.385,-1,1596.336996337,6.39940779313602,33.5361905376194
1743293054404,20:04:14.404,-1,1590.47619047619,6.40961825630815,33.5361905376194
1743293054424,20:04:14.424,-1,1583.88278388278,6.41982871948029,33.5361905376194
1743293054443,20:04:14.443,-1,1571.42857142857,6.43003918265242,33.5361905376194
1743293054463,20:04:14.463,-1,1545.78754578755,6.44024964582456,33.5361905376194
1743293054482,20:04:14.482,-1,1510.62271062271,6.45046010899669,33.5361905376194
1743293054502,20:04:14.502,-1,1476.19047619048,6.46067057216883,33.5361905376194
1743293054521,20:04:14.521,-1,1448.35164835165,6.47598626692703,33.5361905376194
1743293054541,20:04:14.541,-1,1408.79120879121,6.48619673009917,33.5361905376194
1743293054560,20:04:14.560,-1,1375.09157509157,6.49130196168524,33.5361905376194
1743293054580,20:04:14.580,-1,1356.04395604396,6.50151242485737,33.5361905376194
1743293054599,20:04:14.599,-1,1357.50915750916,6.51172288802951,33.5361905376194
1743293054619,20:04:14.619,-1,1356.77655677656,6.52193335120164,33.5361905376194
1743293054638,20:04:14.638,-1,1349.45054945055,6.53214381437378,33.5361905376194
1743293054658,20:04:14.658,-1,1346.52014652015,6.53724904595985,33.5361905376194
1743293054677,20:04:14.677,-1,1336.99633699634,6.54235427754591,33.5361905376194
1743293054697,20:04:14.697,-1,1317.21611721612,6.54745950913198,33.5361905376194
1743293054716,20:04:14.716,-1,1287.91208791209,6.55766997230412,33.5361905376194
1743293054736,20:04:14.736,-1,1270.32967032967,6.56277520389019,33.5361905376194
1743293054755,20:04:14.755,-1,1258.60805860806,6.56277520389019,33.5361905376194
1743293054775,20:04:14.775,-1,1256.41025641026,6.56788043547625,33.5361905376194
1743293054794,20:04:14.794,-1,1233.69963369963,6.57298566706232,33.5361905376194
1743293054814,20:04:14.814,-1,1213.91941391941,6.57298566706232,33.5361905376194
1743293054833,20:04:14.833,-1,1209.52380952381,6.57809089864839,33.5361905376194
1743293054853,20:04:14.853,-1,1209.52380952381,6.58319613023446,33.5361905376194
1743293054872,20:04:14.872,-1,1204.3956043956,6.58319613023446,33.5361905376194
1743293054892,20:04:14.892,-1,1195.6043956044,6.58830136182053,33.5361905376194
1743293054911,20:04:14.911,-1,1203.663003663,6.59340659340659,33.5361905376194
1743293054931,20:04:14.931,-1,1197.0695970696,6.59851182499266,33.5361905376194
1743293054950,20:04:14.950,-1,1199.2673992674,6.6087222881648,33.5361905376194
1743293054970,20:04:14.970,-1,1224.90842490842,6.61893275133693,33.5361905376194
1743293054989,20:04:14.989,-1,1268.86446886447,6.624037982923,33.5361905376194
1743293055009,20:04:15.009,-1,1334.06593406593,6.624037982923,33.5361905376194
1743293055028,20:04:15.028,-1,1431.50183150183,6.624037982923,33.5361905376194
1743293055048,20:04:15.048,-1,1528.93772893773,6.624037982923,33.5361905376194
1743293055067,20:04:15.067,-1,1597.0695970696,6.624037982923,33.5361905376194
1743293055087,20:04:15.087,-1,1643.95604395604,6.61382751975086,33.5361905376194
1743293055106,20:04:15.106,-1,1674.72527472527,6.61382751975086,33.5361905376194
1743293055126,20:04:15.126,-1,1684.24908424908,6.6087222881648,33.5361905376194
1743293055145,20:04:15.145,-1,1689.37728937729,6.6087222881648,33.5361905376194
1743293055165,20:04:15.165,-1,1682.78388278388,6.60361705657873,33.5361905376194
1743293055184,20:04:15.184,-1,1669.59706959707,6.6087222881648,33.5361905376194
1743293055204,20:04:15.204,-1,1663.73626373626,6.6087222881648,33.5361905376194
