RawTimestamp,LocalTime,HeartRate,PPG,GSR,Temperature
1743292300867,19:51:40.867,-1,0,0.533910533910534,26.4608428180218
1743292300886,19:51:40.886,-1,0,0.533910533910534,26.4608428180218
1743292300906,19:51:40.906,-1,0,4.93867658046762,26.4608428180218
1743292300925,19:51:40.925,-1,0,4.93867658046762,26.4608428180218
1743292300945,19:51:40.945,-1,0,4.93867658046762,26.4608428180218
1743292300964,19:51:40.964,-1,0,4.93867658046762,26.4608428180218
1743292300984,19:51:40.984,-1,0,4.93867658046762,26.4608428180218
1743292301003,19:51:41.003,-1,0,4.94441679110669,26.4608428180218
1743292301023,19:51:41.023,-1,0,4.95973248586489,26.4608428180218
1743292301042,19:51:41.042,-1,0,4.96994294903702,26.4608428180218
1743292301062,19:51:41.062,-1,0,4.98525864379523,26.4608428180218
1743292301081,19:51:41.081,-1,0,4.99546910696736,26.4608428180218
1743292301101,19:51:41.101,-1,0,5.01078480172557,26.4608428180218
1743292301120,19:51:41.120,-1,0,5.0209952648977,26.4608428180218
1743292301140,19:51:41.140,-1,0,5.03631095965591,26.4608428180218
1743292301159,19:51:41.159,-1,0,5.04652142282804,26.4608428180218
1743292301179,19:51:41.179,-1,0,5.05673188600018,26.4608428180218
1743292301198,19:51:41.198,-1,0,5.06694234917231,26.4608428180218
1743292301218,19:51:41.218,-1,0,5.07715281234445,26.4608428180218
1743292301237,19:51:41.237,-1,0,5.08736327551658,26.4608428180218
1743292301257,19:51:41.257,-1,0,5.09757373868872,26.4608428180218
1743292301276,19:51:41.276,-1,0,5.11288943344692,26.4608428180218
1743292301296,19:51:41.296,-1,0,5.12309989661906,26.4608428180218
1743292301315,19:51:41.315,-1,0,5.14352082296333,26.4608428180218
1743292301335,19:51:41.335,-1,0,5.1639417493076,26.4608428180218
1743292301354,19:51:41.354,-1,0,5.17925744406581,26.4608428180218
1743292301374,19:51:41.374,-1,0,5.19967837041008,26.4608428180218
1743292301393,19:51:41.393,-1,0,5.22009929675435,26.4608428180218
1743292301413,19:51:41.413,-1,0,5.23541499151255,26.4608428180218
1743292301432,19:51:41.432,-1,0,5.25073068627075,26.4608428180218
1743292301452,19:51:41.452,-1,0,5.27115161261503,26.4608428180218
1743292301471,19:51:41.471,-1,0,5.28646730737323,26.4608428180218
1743292301491,19:51:41.491,-1,0,5.29667777054536,26.4608428180218
1743292301510,19:51:41.510,-1,0,5.31199346530357,26.4608428180218
1743292301530,19:51:41.530,-1,0,5.32730916006177,26.4608428180218
1743292301549,19:51:41.549,-1,0,5.34262485481998,26.4608428180218
1743292301569,19:51:41.569,-1,0,5.35794054957818,26.4608428180218
1743292301588,19:51:41.588,-1,0,5.36815101275032,26.4608428180218
1743292301608,19:51:41.608,-1,0,5.37836147592245,26.4608428180218
1743292301627,19:51:41.627,-1,0,5.38857193909459,26.4608428180218
1743292301647,19:51:41.647,-1,0,5.39878240226672,26.4608428180218
1743292301666,19:51:41.666,-1,0,5.40388763385279,26.4608428180218
1743292301686,19:51:41.686,-1,0,5.40899286543886,26.4608428180218
1743292301705,19:51:41.705,-1,0,5.40899286543886,26.4608428180218
1743292301725,19:51:41.725,-1,0,5.41409809702493,26.4608428180218
1743292301744,19:51:41.744,-1,0,5.41920332861099,26.4608428180218
1743292301764,19:51:41.764,-1,0,5.42430856019706,26.4608428180218
1743292301783,19:51:41.783,-1,0,5.42430856019706,33.1108965873718
1743292301803,19:51:41.803,-1,0,5.4345190233692,33.1108965873718
1743292301822,19:51:41.822,-1,0,5.4345190233692,33.1108965873718
1743292301842,19:51:41.842,-1,0,5.43962425495527,33.1108965873718
1743292301861,19:51:41.861,-1,0,5.44472948654133,33.1108965873718
1743292301881,19:51:41.881,-1,0,5.44472948654133,33.1108965873718
1743292301900,19:51:41.900,-1,0,5.4498347181274,33.1108965873718
1743292301920,19:51:41.920,-1,0,5.45493994971347,33.1108965873718
1743292301939,19:51:41.939,-1,0,5.45493994971347,33.1108965873718
1743292301959,19:51:41.959,-1,0,5.45493994971347,33.1108965873718
1743292301978,19:51:41.978,-1,0,5.46004518129954,33.1108965873718
1743292301998,19:51:41.998,-1,0,5.46004518129954,33.1108965873718
1743292302017,19:51:42.017,-1,0,5.46515041288561,33.1108965873718
1743292302037,19:51:42.037,-1,0,5.46515041288561,33.1108965873718
1743292302056,19:51:42.056,-1,0,5.46515041288561,33.1108965873718
1743292302076,19:51:42.076,-1,0,5.47025564447167,33.1108965873718
1743292302095,19:51:42.095,-1,0,5.46515041288561,33.1108965873718
1743292302115,19:51:42.115,-1,0,5.47025564447167,33.1108965873718
1743292302134,19:51:42.134,-1,0,5.47025564447167,33.1108965873718
1743292302154,19:51:42.154,-1,0,5.47025564447167,33.1108965873718
1743292302173,19:51:42.173,-1,0,5.47536087605774,33.1108965873718
1743292302193,19:51:42.193,-1,0,5.48046610764381,33.1108965873718
1743292302212,19:51:42.212,-1,0,5.48557133922987,33.1108965873718
1743292302232,19:51:42.232,-1,0,5.49067657081594,33.1108965873718
1743292302251,19:51:42.251,-1,0,5.49067657081594,33.1108965873718
1743292302271,19:51:42.271,-1,0,5.49067657081594,33.1108965873718
1743292302290,19:51:42.290,-1,0,5.49067657081594,33.1108965873718
1743292302310,19:51:42.310,-1,0,5.49067657081594,33.1108965873718
1743292302329,19:51:42.329,-1,0,5.48557133922987,33.1108965873718
1743292302349,19:51:42.349,-1,0,5.48557133922987,33.1108965873718
1743292302368,19:51:42.368,-1,135.531135531136,5.48557133922987,33.1108965873718
1743292302388,19:51:42.388,-1,429.304029304029,5.48557133922987,33.1108965873718
1743292302407,19:51:42.407,-1,663.736263736264,5.48557133922987,33.1108965873718
1743292302427,19:51:42.427,-1,830.769230769231,5.48557133922987,33.1108965873718
1743292302446,19:51:42.446,-1,950.18315018315,5.48557133922987,33.1108965873718
1743292302466,19:51:42.466,-1,1058.60805860806,5.48557133922987,33.1108965873718
1743292302485,19:51:42.485,-1,1191.20879120879,5.48557133922987,33.1108965873718
1743292302505,19:51:42.505,-1,1328.93772893773,5.48557133922987,33.1108965873718
1743292302524,19:51:42.524,-1,1462.27106227106,5.48046610764381,33.1108965873718
1743292302544,19:51:42.544,-1,1582.41758241758,5.47536087605774,33.1108965873718
1743292302563,19:51:42.563,-1,1676.19047619048,5.47536087605774,33.1108965873718
1743292302583,19:51:42.583,-1,1733.33333333333,5.47025564447167,33.1108965873718
1743292302602,19:51:42.602,-1,1761.90476190476,5.46515041288561,33.1108965873718
1743292302622,19:51:42.622,-1,1775.82417582418,5.46004518129954,33.1108965873718
1743292302641,19:51:42.641,-1,1780.21978021978,5.46004518129954,33.1108965873718
1743292302661,19:51:42.661,-1,1767.03296703297,5.46004518129954,33.1108965873718
1743292302680,19:51:42.680,-1,1721.61172161172,5.45493994971347,33.1108965873718
1743292302700,19:51:42.700,-1,1663.73626373626,5.4498347181274,33.1108965873718
1743292302719,19:51:42.719,-1,1619.78021978022,5.44472948654133,33.1108965873718
1743292302739,19:51:42.739,-1,1573.62637362637,5.44472948654133,33.1108965873718
1743292302758,19:51:42.758,-1,1508.42490842491,5.44472948654133,33.1108965873718
1743292302778,19:51:42.778,-1,1463.00366300366,5.43962425495527,33.1309113632888
1743292302797,19:51:42.797,-1,1430.76923076923,5.4345190233692,33.1309113632888
1743292302817,19:51:42.817,-1,1393.40659340659,5.42941379178313,33.1309113632888
1743292302836,19:51:42.836,-1,1370.69597069597,5.42430856019706,33.1309113632888
1743292302856,19:51:42.856,-1,1361.17216117216,5.41920332861099,33.1309113632888
1743292302875,19:51:42.875,-1,1335.53113553114,5.41409809702493,33.1309113632888
1743292302895,19:51:42.895,-1,1304.0293040293,5.40899286543886,33.1309113632888
1743292302914,19:51:42.914,-1,1285.71428571429,5.40388763385279,33.1309113632888
1743292302934,19:51:42.934,-1,1261.53846153846,5.39878240226672,33.1309113632888
1743292302953,19:51:42.953,-1,1225.64102564103,5.39367717068065,33.1309113632888
1743292302973,19:51:42.973,-1,1180.95238095238,5.38857193909459,33.1309113632888
1743292302992,19:51:42.992,-1,1156.77655677656,5.38346670750852,33.1309113632888
1743292303012,19:51:43.012,-1,1147.25274725275,5.37836147592245,33.1309113632888
1743292303031,19:51:43.031,-1,1123.80952380952,5.37325624433638,33.1309113632888
1743292303051,19:51:43.051,-1,1097.4358974359,5.36815101275032,33.1309113632888
1743292303070,19:51:43.070,-1,1082.05128205128,5.36304578116425,33.1309113632888
1743292303090,19:51:43.090,-1,1083.51648351648,5.35794054957818,33.1309113632888
1743292303109,19:51:43.109,-1,1087.17948717949,5.34773008640604,33.1309113632888
1743292303129,19:51:43.129,-1,1087.91208791209,5.34773008640604,33.1309113632888
1743292303148,19:51:43.148,-1,1079.85347985348,5.34262485481998,33.1309113632888
1743292303168,19:51:43.168,-1,1062.27106227106,5.34262485481998,33.1309113632888
1743292303187,19:51:43.187,-1,1055.67765567766,5.33751962323391,33.1309113632888
1743292303207,19:51:43.207,-1,1063.73626373626,5.33241439164784,33.1309113632888
1743292303226,19:51:43.226,-1,1065.93406593407,5.32730916006177,33.1309113632888
1743292303246,19:51:43.246,-1,1078.38827838828,5.31709869688964,33.1309113632888
1743292303265,19:51:43.265,-1,1133.33333333333,5.31199346530357,33.1309113632888
1743292303285,19:51:43.285,-1,1221.24542124542,5.30178300213143,33.1309113632888
1743292303304,19:51:43.304,-1,1340.65934065934,5.2915725389593,33.1309113632888
1743292303324,19:51:43.324,-1,1452.01465201465,5.28646730737323,33.1309113632888
1743292303343,19:51:43.343,-1,1533.33333333333,5.28136207578716,33.1309113632888
1743292303363,19:51:43.363,-1,1619.04761904762,5.27115161261503,33.1309113632888
1743292303382,19:51:43.382,-1,1679.12087912088,5.26604638102896,33.1309113632888
1743292303402,19:51:43.402,-1,1704.0293040293,5.25583591785682,33.1309113632888
1743292303421,19:51:43.421,-1,1710.62271062271,5.25073068627075,33.1309113632888
1743292303441,19:51:43.441,-1,1703.2967032967,5.24562545468469,33.1309113632888
1743292303460,19:51:43.460,-1,1676.19047619048,5.23541499151255,33.1309113632888
1743292303480,19:51:43.480,-1,1645.42124542125,5.23030975992649,33.1309113632888
1743292303499,19:51:43.499,-1,1612.45421245421,5.22009929675435,33.1309113632888
1743292303519,19:51:43.519,-1,1562.63736263736,5.21499406516828,33.1309113632888
1743292303538,19:51:43.538,-1,1499.6336996337,5.20478360199614,33.1309113632888
1743292303558,19:51:43.558,-1,1442.49084249084,5.19967837041008,33.1309113632888
1743292303577,19:51:43.577,-1,1400.7326007326,5.19457313882401,33.1309113632888
1743292303597,19:51:43.597,-1,1370.69597069597,5.18436267565187,33.1309113632888
1743292303616,19:51:43.616,-1,1347.98534798535,5.17925744406581,33.1309113632888
1743292303636,19:51:43.636,-1,1336.99633699634,5.16904698089367,33.1309113632888
1743292303655,19:51:43.655,-1,1331.13553113553,5.1639417493076,33.1309113632888
1743292303675,19:51:43.675,-1,1324.54212454212,5.15373128613547,33.1309113632888
1743292303694,19:51:43.694,-1,1305.49450549451,5.1486260545494,33.1309113632888
1743292303714,19:51:43.714,-1,1281.31868131868,5.14352082296333,33.1309113632888
1743292303733,19:51:43.733,-1,1262.27106227106,5.13331035979119,33.1309113632888
1743292303753,19:51:43.753,-1,1244.68864468864,5.13331035979119,33.1309113632888
1743292303772,19:51:43.772,-1,1227.10622710623,5.12309989661906,33.1359150427161
1743292303792,19:51:43.792,-1,1204.3956043956,5.11799466503299,33.1359150427161
1743292303811,19:51:43.811,-1,1174.35897435897,5.11288943344692,33.1359150427161
1743292303831,19:51:43.831,-1,1151.64835164835,5.10778420186086,33.1359150427161
1743292303850,19:51:43.850,-1,1142.85714285714,5.10267897027479,33.1359150427161
1743292303870,19:51:43.870,-1,1142.12454212454,5.09246850710265,33.1359150427161
1743292303889,19:51:43.889,-1,1140.65934065934,5.08736327551658,33.1359150427161
1743292303909,19:51:43.909,-1,1137.72893772894,5.08225804393052,33.1359150427161
1743292303928,19:51:43.928,-1,1138.46153846154,5.07715281234445,33.1359150427161
1743292303948,19:51:43.948,-1,1135.53113553114,5.07204758075838,33.1359150427161
1743292303967,19:51:43.967,-1,1125.27472527473,5.06694234917231,33.1359150427161
1743292303987,19:51:43.987,-1,1106.22710622711,5.06183711758625,33.1359150427161
1743292304006,19:51:44.006,-1,1101.8315018315,5.05673188600018,33.1359150427161
1743292304026,19:51:44.026,-1,1146.52014652015,5.05162665441411,33.1359150427161
1743292304045,19:51:44.045,-1,1215.38461538462,5.04652142282804,33.1359150427161
1743292304065,19:51:44.065,-1,1330.40293040293,5.04141619124197,33.1359150427161
1743292304084,19:51:44.084,-1,1452.74725274725,5.03120572806984,33.1359150427161
1743292304104,19:51:44.104,-1,1564.83516483516,5.02610049648377,33.1359150427161
1743292304123,19:51:44.123,-1,1649.81684981685,5.0209952648977,33.1359150427161
1743292304143,19:51:44.143,-1,1692.30769230769,5.01589003331164,33.1359150427161
1743292304162,19:51:44.162,-1,1693.77289377289,5.01078480172557,33.1359150427161
1743292304182,19:51:44.182,-1,1677.65567765568,5.00057433855343,33.1359150427161
1743292304201,19:51:44.201,-1,1649.81684981685,5.00057433855343,33.1359150427161
1743292304221,19:51:44.221,-1,1624.90842490842,4.99546910696736,33.1359150427161
1743292304240,19:51:44.240,-1,1593.40659340659,4.9903638753813,33.1359150427161
1743292304260,19:51:44.260,-1,1553.11355311355,4.98015341220916,33.1359150427161
1743292304279,19:51:44.279,-1,1499.6336996337,4.97504818062309,33.1359150427161
1743292304299,19:51:44.299,-1,1449.81684981685,4.96994294903702,33.1359150427161
1743292304318,19:51:44.318,-1,1408.79120879121,4.96483771745096,33.1359150427161
1743292304338,19:51:44.338,-1,1381.68498168498,4.95973248586489,33.1359150427161
1743292304357,19:51:44.357,-1,1367.76556776557,4.95462725427882,33.1359150427161
1743292304377,19:51:44.377,-1,1356.04395604396,4.95462725427882,33.1359150427161
1743292304396,19:51:44.396,-1,1350.18315018315,4.94952202269275,33.1359150427161
1743292304416,19:51:44.416,-1,1329.67032967033,4.94441679110669,33.1359150427161
1743292304435,19:51:44.435,-1,1312.82051282051,4.93931155952062,33.1359150427161
1743292304455,19:51:44.455,-1,1296.7032967033,4.93420632793455,33.1359150427161
1743292304474,19:51:44.474,-1,1263.00366300366,4.92910109634848,33.1359150427161
1743292304494,19:51:44.494,-1,1238.82783882784,4.92399586476242,33.1359150427161
1743292304513,19:51:44.513,-1,1225.64102564103,4.91889063317635,33.1359150427161
1743292304533,19:51:44.533,-1,1208.79120879121,4.91889063317635,33.1359150427161
1743292304552,19:51:44.552,-1,1201.4652014652,4.91378540159028,33.1359150427161
1743292304572,19:51:44.572,-1,1186.08058608059,4.90868017000421,33.1359150427161
1743292304591,19:51:44.591,-1,1158.97435897436,4.90357493841814,33.1359150427161
1743292304611,19:51:44.611,-1,1136.26373626374,4.90357493841814,33.1359150427161
1743292304630,19:51:44.630,-1,1120.87912087912,4.89846970683208,33.1359150427161
1743292304650,19:51:44.650,-1,1101.8315018315,4.89846970683208,33.1359150427161
1743292304669,19:51:44.669,-1,1088.64468864469,4.89336447524601,33.1359150427161
1743292304689,19:51:44.689,-1,1097.4358974359,4.88825924365994,33.1359150427161
1743292304708,19:51:44.708,-1,1104.7619047619,4.88825924365994,33.1359150427161
1743292304728,19:51:44.728,-1,1114.28571428571,4.88825924365994,33.1359150427161
1743292304747,19:51:44.747,-1,1155.31135531136,4.88315401207387,33.1359150427161
1743292304767,19:51:44.767,-1,1229.30402930403,4.88315401207387,33.1309113632888
1743292304786,19:51:44.786,-1,1327.47252747253,4.8780487804878,33.1309113632888
1743292304806,19:51:44.806,-1,1432.23443223443,4.8780487804878,33.1309113632888
1743292304825,19:51:44.825,-1,1510.62271062271,4.8780487804878,33.1309113632888
1743292304845,19:51:44.845,-1,1572.89377289377,4.8780487804878,33.1309113632888
1743292304864,19:51:44.864,-1,1629.30402930403,4.8780487804878,33.1309113632888
1743292304884,19:51:44.884,-1,1657.87545787546,4.8780487804878,33.1309113632888
1743292304903,19:51:44.903,-1,1659.34065934066,4.8780487804878,33.1309113632888
1743292304923,19:51:44.923,-1,1649.81684981685,4.88315401207387,33.1309113632888
1743292304942,19:51:44.942,-1,1627.83882783883,4.88315401207387,33.1309113632888
1743292304962,19:51:44.962,-1,1608.05860805861,4.88315401207387,33.1309113632888
1743292304981,19:51:44.981,-1,1567.76556776557,4.88825924365994,33.1309113632888
1743292305001,19:51:45.001,-1,1517.21611721612,4.88825924365994,33.1309113632888
1743292305020,19:51:45.020,-1,1452.74725274725,4.89336447524601,33.1309113632888
1743292305040,19:51:45.040,-1,1383.88278388278,4.89846970683208,33.1309113632888
1743292305059,19:51:45.059,-1,1339.92673992674,4.90357493841814,33.1309113632888
1743292305079,19:51:45.079,-1,1323.07692307692,4.90868017000421,33.1309113632888
1743292305098,19:51:45.098,-1,1312.82051282051,4.91378540159028,33.1309113632888
1743292305118,19:51:45.118,-1,1308.42490842491,4.91889063317635,33.1309113632888
1743292305137,19:51:45.137,-1,1294.50549450549,4.92910109634848,33.1309113632888
1743292305157,19:51:45.157,-1,1275.45787545788,4.93420632793455,33.1309113632888
1743292305176,19:51:45.176,-1,1252.74725274725,4.93420632793455,33.1309113632888
1743292305196,19:51:45.196,-1,1227.83882783883,4.94441679110669,33.1309113632888
1743292305215,19:51:45.215,-1,1205.86080586081,4.95462725427882,33.1309113632888
1743292305235,19:51:45.235,-1,1176.55677655678,4.95973248586489,33.1309113632888
1743292305254,19:51:45.254,-1,1156.77655677656,4.96994294903702,33.1309113632888
1743292305274,19:51:45.274,-1,1142.12454212454,4.97504818062309,33.1309113632888
1743292305293,19:51:45.293,-1,1125.27472527473,4.98525864379523,33.1309113632888
1743292305313,19:51:45.313,-1,1114.28571428571,4.99546910696736,33.1309113632888
1743292305332,19:51:45.332,-1,1117.94871794872,5.00057433855343,33.1309113632888
1743292305352,19:51:45.352,-1,1115.01831501831,5.01078480172557,33.1309113632888
1743292305371,19:51:45.371,-1,1109.89010989011,5.0209952648977,33.1309113632888
1743292305391,19:51:45.391,-1,1109.89010989011,5.03120572806984,33.1309113632888
1743292305410,19:51:45.410,-1,1106.22710622711,5.04141619124197,33.1309113632888
1743292305430,19:51:45.430,-1,1087.91208791209,5.04652142282804,33.1309113632888
1743292305449,19:51:45.449,-1,1063.00366300366,5.05673188600018,33.1309113632888
1743292305469,19:51:45.469,-1,1046.88644688645,5.06694234917231,33.1309113632888
1743292305488,19:51:45.488,-1,1043.22344322344,5.07715281234445,33.1309113632888
1743292305508,19:51:45.508,-1,1063.73626373626,5.08736327551658,33.1309113632888
1743292305527,19:51:45.527,-1,1115.75091575092,5.09757373868872,33.1309113632888
1743292305547,19:51:45.547,-1,1183.88278388278,5.10778420186086,33.1309113632888
1743292305566,19:51:45.566,-1,1266.66666666667,5.11288943344692,33.1309113632888
1743292305586,19:51:45.586,-1,1359.70695970696,5.12309989661906,33.1309113632888
1743292305605,19:51:45.605,-1,1438.09523809524,5.13331035979119,33.1309113632888
1743292305625,19:51:45.625,-1,1490.10989010989,5.13841559137726,33.1309113632888
1743292305644,19:51:45.644,-1,1533.33333333333,5.14352082296333,33.1309113632888
1743292305664,19:51:45.664,-1,1552.38095238095,5.15373128613547,33.1309113632888
1743292305683,19:51:45.683,-1,1538.46153846154,5.15883651772153,33.1309113632888
1743292305703,19:51:45.703,-1,1511.35531135531,5.1639417493076,33.1309113632888
1743292305722,19:51:45.722,-1,1487.91208791209,5.17415221247974,33.1309113632888
1743292305742,19:51:45.742,-1,1463.00366300366,5.17925744406581,33.1309113632888
1743292305761,19:51:45.761,-1,1434.43223443223,5.18436267565187,33.1459223841084
1743292305781,19:51:45.781,-1,1395.6043956044,5.18946790723794,33.1459223841084
1743292305800,19:51:45.800,-1,1360.43956043956,5.19457313882401,33.1459223841084
1743292305820,19:51:45.820,-1,1336.26373626374,5.19967837041008,33.1459223841084
1743292305839,19:51:45.839,-1,1308.42490842491,5.20478360199614,33.1459223841084
1743292305859,19:51:45.859,-1,1286.44688644689,5.20988883358221,33.1459223841084
1743292305878,19:51:45.878,-1,1268.13186813187,5.21499406516828,33.1459223841084
1743292305898,19:51:45.898,-1,1254.21245421245,5.22009929675435,33.1459223841084
1743292305917,19:51:45.917,-1,1238.82783882784,5.22520452834042,33.1459223841084
1743292305937,19:51:45.937,-1,1238.82783882784,5.22520452834042,33.1459223841084
1743292305956,19:51:45.956,-1,1224.90842490842,5.23030975992649,33.1459223841084
1743292305976,19:51:45.976,-1,1205.12820512821,5.23541499151255,33.1459223841084
1743292305995,19:51:45.995,-1,1189.01098901099,5.23541499151255,33.1459223841084
1743292306015,19:51:46.015,-1,1169.96336996337,5.23541499151255,33.1459223841084
1743292306034,19:51:46.034,-1,1158.24175824176,5.24052022309862,33.1459223841084
1743292306054,19:51:46.054,-1,1140.65934065934,5.24562545468469,33.1459223841084
1743292306073,19:51:46.073,-1,1129.67032967033,5.24562545468469,33.1459223841084
1743292306093,19:51:46.093,-1,1120.14652014652,5.25073068627075,33.1459223841084
1743292306112,19:51:46.112,-1,1123.07692307692,5.25583591785682,33.1459223841084
1743292306132,19:51:46.132,-1,1105.49450549451,5.25583591785682,33.1459223841084
1743292306151,19:51:46.151,-1,1086.44688644689,5.25583591785682,33.1459223841084
1743292306171,19:51:46.171,-1,1069.59706959707,5.26094114944289,33.1459223841084
1743292306190,19:51:46.190,-1,1071.79487179487,5.26094114944289,33.1459223841084
1743292306210,19:51:46.210,-1,1073.26007326007,5.26094114944289,33.1459223841084
1743292306229,19:51:46.229,-1,1060.80586080586,5.26094114944289,33.1459223841084
1743292306249,19:51:46.249,-1,1043.22344322344,5.26094114944289,33.1459223841084
1743292306268,19:51:46.268,-1,1047.61904761905,5.26604638102896,33.1459223841084
1743292306288,19:51:46.288,-1,1089.37728937729,5.26604638102896,33.1459223841084
1743292306307,19:51:46.307,-1,1160.43956043956,5.26604638102896,33.1459223841084
1743292306327,19:51:46.327,-1,1249.81684981685,5.26604638102896,33.1459223841084
1743292306346,19:51:46.346,-1,1323.80952380952,5.26604638102896,33.1459223841084
1743292306366,19:51:46.366,-1,1369.23076923077,5.26604638102896,33.1459223841084
1743292306385,19:51:46.385,-1,1397.8021978022,5.26604638102896,33.1459223841084
1743292306405,19:51:46.405,-1,1402.1978021978,5.26094114944289,33.1459223841084
1743292306424,19:51:46.424,-1,1400,5.26604638102896,33.1459223841084
1743292306444,19:51:46.444,-1,1408.05860805861,5.26094114944289,33.1459223841084
1743292306463,19:51:46.463,-1,1408.05860805861,5.26094114944289,33.1459223841084
1743292306483,19:51:46.483,-1,1384.61538461538,5.26094114944289,33.1459223841084
1743292306502,19:51:46.502,-1,1370.69597069597,5.26604638102896,33.1459223841084
1743292306522,19:51:46.522,-1,1341.39194139194,5.26604638102896,33.1459223841084
1743292306541,19:51:46.541,-1,1310.62271062271,5.26604638102896,33.1459223841084
1743292306561,19:51:46.561,-1,1288.64468864469,5.27115161261503,33.1459223841084
1743292306580,19:51:46.580,-1,1253.47985347985,5.27115161261503,33.1459223841084
1743292306600,19:51:46.600,-1,1233.69963369963,5.27625684420109,33.1459223841084
1743292306619,19:51:46.619,-1,1227.83882783883,5.28136207578716,33.1459223841084
1743292306639,19:51:46.639,-1,1209.52380952381,5.28646730737323,33.1459223841084
1743292306658,19:51:46.658,-1,1192.67399267399,5.2915725389593,33.1459223841084
1743292306678,19:51:46.678,-1,1199.2673992674,5.30178300213143,33.1459223841084
1743292306697,19:51:46.697,-1,1197.0695970696,5.3068882337175,33.1459223841084
1743292306717,19:51:46.717,-1,1185.34798534799,5.31709869688964,33.1459223841084
1743292306736,19:51:46.736,-1,1167.03296703297,5.32730916006177,33.1459223841084
1743292306756,19:51:46.756,-1,1144.32234432234,5.33241439164784,33.1459223841084
1743292306775,19:51:46.775,-1,1128.93772893773,5.34773008640604,33.1459223841084
1743292306795,19:51:46.795,-1,1123.07692307692,5.35794054957818,33.1459223841084
1743292306814,19:51:46.814,-1,1123.80952380952,5.37325624433638,33.1459223841084
1743292306834,19:51:46.834,-1,1123.07692307692,5.38346670750852,33.1459223841084
1743292306853,19:51:46.853,-1,1103.2967032967,5.39878240226672,33.1459223841084
1743292306873,19:51:46.873,-1,1082.05128205128,5.40899286543886,33.1459223841084
1743292306892,19:51:46.892,-1,1070.32967032967,5.41920332861099,33.1459223841084
1743292306912,19:51:46.912,-1,1060.80586080586,5.43962425495527,33.1459223841084
1743292306931,19:51:46.931,-1,1052.01465201465,5.4498347181274,33.1459223841084
1743292306951,19:51:46.951,-1,1038.82783882784,5.46515041288561,33.1459223841084
1743292306970,19:51:46.970,-1,1041.02564102564,5.48046610764381,33.1459223841084
1743292306990,19:51:46.990,-1,1055.67765567766,5.49067657081594,33.1459223841084
1743292307009,19:51:47.009,-1,1068.13186813187,5.51109749716022,33.1459223841084
1743292307029,19:51:47.029,-1,1075.45787545788,5.52130796033235,33.1459223841084
1743292307048,19:51:47.048,-1,1082.78388278388,5.53662365509055,33.1459223841084
1743292307068,19:51:47.068,-1,1106.95970695971,5.55193934984876,33.1459223841084
1743292307087,19:51:47.087,-1,1147.98534798535,5.57236027619303,33.1459223841084
1743292307107,19:51:47.107,-1,1204.3956043956,5.58257073936516,33.1459223841084
1743292307126,19:51:47.126,-1,1260.80586080586,5.60299166570943,33.1459223841084
1743292307146,19:51:47.146,-1,1306.22710622711,5.61320212888157,33.1459223841084
1743292307165,19:51:47.165,-1,1341.39194139194,5.62341259205371,33.1459223841084
1743292307185,19:51:47.185,-1,1358.97435897436,5.63872828681191,33.1459223841084
1743292307204,19:51:47.204,-1,1363.36996336996,5.65404398157011,33.1459223841084
1743292307224,19:51:47.224,-1,1359.70695970696,5.66425444474225,33.1459223841084
1743292307243,19:51:47.243,-1,1350.18315018315,5.67957013950045,33.1459223841084
1743292307263,19:51:47.263,-1,1343.58974358974,5.68978060267259,33.1459223841084
1743292307282,19:51:47.282,-1,1326.00732600733,5.69488583425865,33.1459223841084
1743292307302,19:51:47.302,-1,1309.89010989011,5.70509629743079,33.1459223841084
1743292307321,19:51:47.321,-1,1286.44688644689,5.720411992189,33.1459223841084
1743292307341,19:51:47.341,-1,1273.99267399267,5.73062245536113,33.1459223841084
1743292307360,19:51:47.360,-1,1277.65567765568,5.74083291853327,33.1459223841084
1743292307380,19:51:47.380,-1,1268.13186813187,5.7510433817054,33.1459223841084
1743292307399,19:51:47.399,-1,1249.08424908425,5.77146430804967,33.1459223841084
1743292307419,19:51:47.419,-1,1238.82783882784,5.78167477122181,33.1459223841084
1743292307438,19:51:47.438,-1,1233.69963369963,5.78678000280788,33.1459223841084
1743292307458,19:51:47.458,-1,1224.90842490842,5.79188523439394,33.1459223841084
1743292307477,19:51:47.477,-1,1208.05860805861,5.79699046598001,33.1459223841084
1743292307497,19:51:47.497,-1,1202.1978021978,5.79699046598001,33.1459223841084
1743292307516,19:51:47.516,-1,1200.7326007326,5.80209569756608,33.1459223841084
1743292307536,19:51:47.536,-1,1206.59340659341,5.80209569756608,33.1459223841084
1743292307555,19:51:47.555,-1,1207.32600732601,5.80720092915215,33.1459223841084
1743292307575,19:51:47.575,-1,1191.94139194139,5.80720092915215,33.1459223841084
1743292307594,19:51:47.594,-1,1175.09157509158,5.81741139232428,33.1459223841084
1743292307614,19:51:47.614,-1,1156.77655677656,5.81741139232428,33.1459223841084
1743292307633,19:51:47.633,-1,1149.45054945055,5.81741139232428,33.1459223841084
1743292307653,19:51:47.653,-1,1142.12454212454,5.82251662391035,33.1459223841084
1743292307672,19:51:47.672,-1,1130.40293040293,5.82251662391035,33.1459223841084
1743292307692,19:51:47.692,-1,1134.06593406593,5.82762185549642,33.1459223841084
1743292307711,19:51:47.711,-1,1147.25274725275,5.83272708708249,33.1459223841084
1743292307731,19:51:47.731,-1,1155.31135531136,5.83783231866855,33.1459223841084
1743292307750,19:51:47.750,-1,1138.46153846154,5.84293755025462,33.1509260460734
1743292307770,19:51:47.770,-1,1114.28571428571,5.84293755025462,33.1509260460734
1743292307789,19:51:47.789,-1,1120.87912087912,5.84293755025462,33.1509260460734
1743292307809,19:51:47.809,-1,1167.03296703297,5.84293755025462,33.1509260460734
1743292307828,19:51:47.828,-1,1236.63003663004,5.84293755025462,33.1509260460734
1743292307848,19:51:47.848,-1,1293.77289377289,5.84293755025462,33.1509260460734
1743292307867,19:51:47.867,-1,1337.72893772894,5.83783231866855,33.1509260460734
1743292307887,19:51:47.887,-1,1381.68498168498,5.83783231866855,33.1509260460734
1743292307906,19:51:47.906,-1,1414.65201465201,5.83783231866855,33.1509260460734
1743292307926,19:51:47.926,-1,1431.50183150183,5.83783231866855,33.1509260460734
1743292307945,19:51:47.945,-1,1435.16483516484,5.83272708708249,33.1509260460734
1743292307965,19:51:47.965,-1,1435.16483516484,5.83272708708249,33.1509260460734
1743292307984,19:51:47.984,-1,1427.10622710623,5.83272708708249,33.1509260460734
1743292308004,19:51:48.004,-1,1415.38461538462,5.83272708708249,33.1509260460734
1743292308023,19:51:48.023,-1,1390.47619047619,5.82762185549642,33.1509260460734
1743292308043,19:51:48.043,-1,1362.63736263736,5.82762185549642,33.1509260460734
1743292308062,19:51:48.062,-1,1334.06593406593,5.82251662391035,33.1509260460734
1743292308082,19:51:48.082,-1,1313.55311355311,5.82251662391035,33.1509260460734
1743292308101,19:51:48.101,-1,1305.49450549451,5.82251662391035,33.1509260460734
1743292308121,19:51:48.121,-1,1304.0293040293,5.81741139232428,33.1509260460734
1743292308140,19:51:48.140,-1,1300.3663003663,5.81741139232428,33.1509260460734
1743292308160,19:51:48.160,-1,1295.2380952381,5.81741139232428,33.1509260460734
1743292308179,19:51:48.179,-1,1291.57509157509,5.81230616073822,33.1509260460734
1743292308199,19:51:48.199,-1,1290.10989010989,5.81230616073822,33.1509260460734
1743292308218,19:51:48.218,-1,1282.05128205128,5.80720092915215,33.1509260460734
1743292308238,19:51:48.238,-1,1265.93406593407,5.80720092915215,33.1509260460734
1743292308257,19:51:48.257,-1,1249.81684981685,5.80720092915215,33.1509260460734
1743292308277,19:51:48.277,-1,1255.67765567766,5.80209569756608,33.1509260460734
1743292308296,19:51:48.296,-1,1260.80586080586,5.80209569756608,33.1509260460734
1743292308316,19:51:48.316,-1,1250.54945054945,5.79699046598001,33.1509260460734
1743292308335,19:51:48.335,-1,1233.69963369963,5.79188523439394,33.1509260460734
1743292308355,19:51:48.355,-1,1230.03663003663,5.79188523439394,33.1509260460734
1743292308374,19:51:48.374,-1,1230.76923076923,5.78678000280788,33.1509260460734
1743292308394,19:51:48.394,-1,1223.44322344322,5.78167477122181,33.1509260460734
1743292308413,19:51:48.413,-1,1208.05860805861,5.77656953963574,33.1509260460734
1743292308433,19:51:48.433,-1,1187.54578754579,5.77656953963574,33.1509260460734
1743292308452,19:51:48.452,-1,1193.40659340659,5.7663590764636,33.1509260460734
1743292308472,19:51:48.472,-1,1208.79120879121,5.76125384487754,33.1509260460734
1743292308491,19:51:48.491,-1,1222.71062271062,5.75614861329147,33.1509260460734
1743292308511,19:51:48.511,-1,1241.75824175824,5.75614861329147,33.1509260460734
1743292308530,19:51:48.530,-1,1296.7032967033,5.74593815011933,33.1509260460734
1743292308550,19:51:48.550,-1,1364.10256410256,5.74083291853327,33.1509260460734
1743292308569,19:51:48.569,-1,1424.90842490842,5.73062245536113,33.1509260460734
1743292308589,19:51:48.589,-1,1490.84249084249,5.72551722377506,33.1509260460734
1743292308608,19:51:48.608,-1,1549.45054945055,5.720411992189,33.1509260460734
1743292308628,19:51:48.628,-1,1586.81318681319,5.71530676060293,33.1509260460734
1743292308647,19:51:48.647,-1,1598.5347985348,5.70509629743079,33.1509260460734
1743292308667,19:51:48.667,-1,1596.336996337,5.69999106584472,33.1509260460734
1743292308686,19:51:48.686,-1,1584.61538461538,5.69488583425865,33.1509260460734
1743292308706,19:51:48.706,-1,1580.95238095238,5.68978060267259,33.1509260460734
1743292308725,19:51:48.725,-1,1591.20879120879,5.68978060267259,33.1509260460734
1743292308745,19:51:48.745,-1,1586.08058608059,5.68467537108652,33.1559297022177
1743292308764,19:51:48.764,-1,1557.50915750916,5.67957013950045,33.1559297022177
1743292308784,19:51:48.784,-1,1517.94871794872,5.67446490791438,33.1559297022177
1743292308803,19:51:48.803,-1,1489.37728937729,5.66935967632832,33.1559297022177
1743292308823,19:51:48.823,-1,1473.26007326007,5.66425444474225,33.1559297022177
1743292308842,19:51:48.842,-1,1463.73626373626,5.66425444474225,33.1559297022177
1743292308862,19:51:48.862,-1,1450.54945054945,5.65404398157011,33.1559297022177
1743292308881,19:51:48.881,-1,1436.63003663004,5.65404398157011,33.1559297022177
1743292308901,19:51:48.901,-1,1444.68864468864,5.65404398157011,33.1559297022177
1743292308920,19:51:48.920,-1,1442.49084249084,5.64893874998404,33.1559297022177
1743292308940,19:51:48.940,-1,1430.76923076923,5.64893874998404,33.1559297022177
1743292308959,19:51:48.959,-1,1421.24542124542,5.64383351839798,33.1559297022177
1743292308979,19:51:48.979,-1,1402.1978021978,5.64893874998404,33.1559297022177
1743292308998,19:51:48.998,-1,1367.03296703297,5.64383351839798,33.1559297022177
1743292309018,19:51:49.018,-1,1348.71794871795,5.64893874998404,33.1559297022177
1743292309037,19:51:49.037,-1,1344.32234432234,5.64893874998404,33.1559297022177
1743292309057,19:51:49.057,-1,1331.13553113553,5.64893874998404,33.1559297022177
1743292309076,19:51:49.076,-1,1329.67032967033,5.64893874998404,33.1559297022177
1743292309096,19:51:49.096,-1,1324.54212454212,5.65404398157011,33.1559297022177
1743292309115,19:51:49.115,-1,1322.34432234432,5.65404398157011,33.1559297022177
1743292309135,19:51:49.135,-1,1310.62271062271,5.65404398157011,33.1559297022177
1743292309154,19:51:49.154,-1,1296.7032967033,5.65404398157011,33.1559297022177
1743292309174,19:51:49.174,-1,1287.17948717949,5.65404398157011,33.1559297022177
1743292309193,19:51:49.193,-1,1292.30769230769,5.65404398157011,33.1559297022177
1743292309213,19:51:49.213,-1,1334.06593406593,5.65404398157011,33.1559297022177
1743292309232,19:51:49.232,-1,1408.79120879121,5.65404398157011,33.1559297022177
1743292309252,19:51:49.252,-1,1498.9010989011,5.65404398157011,33.1559297022177
1743292309271,19:51:49.271,-1,1596.336996337,5.65404398157011,33.1559297022177
1743292309291,19:51:49.291,-1,1700.3663003663,5.64893874998404,33.1559297022177
1743292309310,19:51:49.310,-1,1788.27838827839,5.64893874998404,33.1559297022177
1743292309330,19:51:49.330,-1,1857.87545787546,5.64383351839798,33.1559297022177
1743292309349,19:51:49.349,-1,1898.1684981685,5.64383351839798,33.1559297022177
1743292309369,19:51:49.369,-1,1918.68131868132,5.64383351839798,33.1559297022177
1743292309388,19:51:49.388,-1,1925.27472527473,5.63872828681191,33.1559297022177
1743292309408,19:51:49.408,-1,1922.34432234432,5.63872828681191,33.1559297022177
1743292309427,19:51:49.427,-1,1910.62271062271,5.63872828681191,33.1559297022177
1743292309447,19:51:49.447,-1,1878.38827838828,5.63362305522584,33.1559297022177
1743292309466,19:51:49.466,-1,1845.42124542125,5.63362305522584,33.1559297022177
1743292309486,19:51:49.486,-1,1808.05860805861,5.63362305522584,33.1559297022177
1743292309505,19:51:49.505,-1,1773.62637362637,5.63362305522584,33.1559297022177
1743292309525,19:51:49.525,-1,1736.26373626374,5.63362305522584,33.1559297022177
1743292309544,19:51:49.544,-1,1715.75091575092,5.62851782363977,33.1559297022177
1743292309564,19:51:49.564,-1,1694.50549450549,5.62851782363977,33.1559297022177
1743292309583,19:51:49.583,-1,1674.72527472527,5.62851782363977,33.1559297022177
1743292309603,19:51:49.603,-1,1646.88644688645,5.62341259205371,33.1559297022177
1743292309622,19:51:49.622,-1,1610.98901098901,5.62341259205371,33.1559297022177
1743292309642,19:51:49.642,-1,1572.16117216117,5.61830736046764,33.1559297022177
1743292309661,19:51:49.661,-1,1543.58974358974,5.61830736046764,33.1559297022177
1743292309681,19:51:49.681,-1,1513.55311355311,5.61830736046764,33.1559297022177
1743292309700,19:51:49.700,-1,1484.98168498168,5.61830736046764,33.1559297022177
1743292309720,19:51:49.720,-1,1459.34065934066,5.61320212888157,33.1559297022177
1743292309739,19:51:49.739,-1,1442.49084249084,5.61320212888157,33.1609333525412
1743292309759,19:51:49.759,-1,1433.69963369963,5.61830736046764,33.1609333525412
1743292309778,19:51:49.778,-1,1416.84981684982,5.61320212888157,33.1609333525412
1743292309798,19:51:49.798,-1,1405.12820512821,5.61320212888157,33.1609333525412
1743292309817,19:51:49.817,-1,1389.74358974359,5.6080968972955,33.1609333525412
1743292309837,19:51:49.837,-1,1373.62637362637,5.6080968972955,33.1609333525412
1743292309856,19:51:49.856,-1,1358.97435897436,5.6080968972955,33.1609333525412
1743292309876,19:51:49.876,-1,1343.58974358974,5.6080968972955,33.1609333525412
1743292309895,19:51:49.895,-1,1321.61172161172,5.60299166570943,33.1609333525412
1743292309915,19:51:49.915,-1,1308.42490842491,5.60299166570943,33.1609333525412
1743292309934,19:51:49.934,-1,1319.41391941392,5.60299166570943,33.1609333525412
1743292309954,19:51:49.954,-1,1387.54578754579,5.59788643412337,33.1609333525412
1743292309973,19:51:49.973,-1,1495.9706959707,5.59788643412337,33.1609333525412
1743292309993,19:51:49.993,-1,1639.56043956044,5.5927812025373,33.1609333525412
1743292310012,19:51:50.012,-1,1786.08058608059,5.5927812025373,33.1609333525412
1743292310032,19:51:50.032,-1,1905.49450549451,5.58767597095123,33.1609333525412
1743292310051,19:51:50.051,-1,1991.94139194139,5.58767597095123,33.1609333525412
1743292310071,19:51:50.071,-1,2066.66666666667,5.58257073936516,33.1609333525412
1743292310090,19:51:50.090,-1,2121.61172161172,5.5774655077791,33.1609333525412
1743292310110,19:51:50.110,-1,2150.18315018315,5.5774655077791,33.1609333525412
1743292310129,19:51:50.129,-1,2164.83516483516,5.57236027619303,33.1609333525412
1743292310149,19:51:50.149,-1,2154.57875457875,5.57236027619303,33.1609333525412
1743292310168,19:51:50.168,-1,2127.47252747253,5.56725504460696,33.1609333525412
1743292310188,19:51:50.188,-1,2081.31868131868,5.56214981302089,33.1609333525412
1743292310207,19:51:50.207,-1,2029.30402930403,5.55704458143483,33.1609333525412
1743292310227,19:51:50.227,-1,1960.43956043956,5.55704458143483,33.1609333525412
1743292310246,19:51:50.246,-1,1898.9010989011,5.54683411826269,33.1609333525412
1743292310266,19:51:50.266,-1,1862.27106227106,5.54683411826269,33.1609333525412
1743292310285,19:51:50.285,-1,1824.90842490842,5.53662365509055,33.1609333525412
1743292310305,19:51:50.305,-1,1803.663003663,5.53662365509055,33.1609333525412
1743292310324,19:51:50.324,-1,1778.75457875458,5.53151842350448,33.1609333525412
1743292310344,19:51:50.344,-1,1745.05494505494,5.52641319191842,33.1609333525412
1743292310363,19:51:50.363,-1,1709.89010989011,5.52130796033235,33.1609333525412
1743292310383,19:51:50.383,-1,1672.52747252747,5.51620272874628,33.1609333525412
1743292310402,19:51:50.402,-1,1640.29304029304,5.51109749716022,33.1609333525412
1743292310422,19:51:50.422,-1,1605.12820512821,5.51109749716022,33.1609333525412
1743292310441,19:51:50.441,-1,1575.82417582418,5.50599226557415,33.1609333525412
1743292310461,19:51:50.461,-1,1540.65934065934,5.50088703398808,33.1609333525412
1743292310480,19:51:50.480,-1,1504.7619047619,5.49578180240201,33.1609333525412
1743292310500,19:51:50.500,-1,1471.79487179487,5.49067657081594,33.1609333525412
1743292310519,19:51:50.519,-1,1439.56043956044,5.48557133922987,33.1609333525412
1743292310539,19:51:50.539,-1,1412.45421245421,5.48046610764381,33.1609333525412
1743292310559,19:51:50.558,-1,1396.336996337,5.47536087605774,33.1609333525412
1743292310578,19:51:50.578,-1,1372.89377289377,5.47025564447167,33.1609333525412
1743292310598,19:51:50.597,-1,1361.90476190476,5.46515041288561,33.1609333525412
1743292310617,19:51:50.617,-1,1353.11355311355,5.46004518129954,33.1609333525412
1743292310637,19:51:50.636,-1,1344.32234432234,5.45493994971347,33.1609333525412
1743292310656,19:51:50.656,-1,1334.06593406593,5.4498347181274,33.1609333525412
1743292310676,19:51:50.676,-1,1325.27472527473,5.44472948654133,33.1609333525412
1743292310695,19:51:50.695,-1,1319.41391941392,5.43962425495527,33.1609333525412
1743292310715,19:51:50.715,-1,1344.32234432234,5.4345190233692,33.1609333525412
1743292310734,19:51:50.734,-1,1431.50183150183,5.4345190233692,33.1659369970439
1743292310754,19:51:50.754,-1,1580.95238095238,5.42430856019706,33.1659369970439
1743292310773,19:51:50.773,-1,1757.50915750916,5.41920332861099,33.1659369970439
1743292310793,19:51:50.793,-1,1922.34432234432,5.41409809702493,33.1659369970439
1743292310812,19:51:50.812,-1,2029.30402930403,5.40899286543886,33.1659369970439
1743292310832,19:51:50.832,-1,2087.17948717949,5.40388763385279,33.1659369970439
1743292310851,19:51:50.851,-1,2117.94871794872,5.39878240226672,33.1659369970439
1743292310871,19:51:50.871,-1,2125.27472527472,5.39367717068065,33.1659369970439
1743292310890,19:51:50.890,-1,2112.82051282051,5.38857193909459,33.1659369970439
1743292310910,19:51:50.910,-1,2088.64468864469,5.37836147592245,33.1659369970439
1743292310929,19:51:50.929,-1,2059.34065934066,5.37836147592245,33.1659369970439
1743292310949,19:51:50.949,-1,2024.17582417582,5.36815101275032,33.1659369970439
1743292310968,19:51:50.968,-1,1961.17216117216,5.36815101275032,33.1659369970439
1743292310988,19:51:50.988,-1,1879.85347985348,5.36304578116425,33.1659369970439
1743292311007,19:51:51.007,-1,1797.8021978022,5.35283531799211,33.1659369970439
1743292311027,19:51:51.027,-1,1731.13553113553,5.35283531799211,33.1659369970439
1743292311046,19:51:51.046,-1,1679.12087912088,5.34773008640604,33.1659369970439
1743292311066,19:51:51.066,-1,1643.22344322344,5.34262485481998,33.1659369970439
1743292311085,19:51:51.085,-1,1600.7326007326,5.33751962323391,33.1659369970439
1743292311105,19:51:51.105,-1,1561.90476190476,5.33751962323391,33.1659369970439
1743292311124,19:51:51.124,-1,1542.12454212454,5.32730916006177,33.1659369970439
1743292311144,19:51:51.144,-1,1523.07692307692,5.32220392847571,33.1659369970439
1743292311163,19:51:51.163,-1,1501.0989010989,5.31709869688964,33.1659369970439
1743292311183,19:51:51.183,-1,1470.32967032967,5.31199346530357,33.1659369970439
1743292311202,19:51:51.202,-1,1432.96703296703,5.3068882337175,33.1659369970439
1743292311222,19:51:51.222,-1,1390.47619047619,5.30178300213143,33.1659369970439
1743292311241,19:51:51.241,-1,1334.06593406593,5.29667777054536,33.1659369970439
1743292311261,19:51:51.261,-1,1305.49450549451,5.2915725389593,33.1659369970439
1743292311280,19:51:51.280,-1,1287.17948717949,5.28646730737323,33.1659369970439
1743292311300,19:51:51.300,-1,1260.80586080586,5.28136207578716,33.1659369970439
1743292311319,19:51:51.319,-1,1235.16483516484,5.27625684420109,33.1659369970439
1743292311339,19:51:51.339,-1,1216.11721611722,5.27625684420109,33.1659369970439
1743292311358,19:51:51.358,-1,1202.9304029304,5.27115161261503,33.1659369970439
1743292311378,19:51:51.378,-1,1200,5.26604638102896,33.1659369970439
1743292311397,19:51:51.397,-1,1188.27838827839,5.26094114944289,33.1659369970439
1743292311417,19:51:51.417,-1,1169.96336996337,5.25583591785682,33.1659369970439
1743292311436,19:51:51.436,-1,1145.78754578755,5.25583591785682,33.1659369970439
1743292311456,19:51:51.456,-1,1128.93772893773,5.25073068627075,33.1659369970439
1743292311475,19:51:51.475,-1,1126.00732600733,5.24562545468469,33.1659369970439
1743292311495,19:51:51.495,-1,1146.52014652015,5.24562545468469,33.1659369970439
1743292311514,19:51:51.514,-1,1205.12820512821,5.24052022309862,33.1659369970439
1743292311534,19:51:51.534,-1,1319.41391941392,5.23541499151255,33.1659369970439
1743292311553,19:51:51.553,-1,1480.58608058608,5.23030975992649,33.1659369970439
1743292311573,19:51:51.573,-1,1628.57142857143,5.23030975992649,33.1659369970439
1743292311592,19:51:51.592,-1,1742.12454212454,5.22520452834042,33.1659369970439
1743292311612,19:51:51.612,-1,1808.79120879121,5.22009929675435,33.1659369970439
1743292311631,19:51:51.631,-1,1808.79120879121,5.22009929675435,33.1659369970439
1743292311651,19:51:51.651,-1,1821.97802197802,5.21499406516828,33.1659369970439
1743292311670,19:51:51.670,-1,1783.88278388278,5.20988883358221,33.1659369970439
1743292311690,19:51:51.690,-1,1734.06593406593,5.20478360199614,33.1659369970439
1743292311709,19:51:51.709,-1,1701.8315018315,5.19967837041008,33.1659369970439
1743292311729,19:51:51.729,-1,1678.38827838828,5.19457313882401,33.1609333525412
1743292311748,19:51:51.748,-1,1642.49084249084,5.19457313882401,33.1609333525412
1743292311768,19:51:51.768,-1,1584.61538461538,5.18946790723794,33.1609333525412
1743292311787,19:51:51.787,-1,1510.62271062271,5.18946790723794,33.1609333525412
1743292311807,19:51:51.807,-1,1452.01465201465,5.18436267565187,33.1609333525412
1743292311826,19:51:51.826,-1,1416.11721611722,5.17925744406581,33.1609333525412
1743292311846,19:51:51.846,-1,1390.47619047619,5.17925744406581,33.1609333525412
1743292311865,19:51:51.865,-1,1372.89377289377,5.17415221247974,33.1609333525412
1743292311885,19:51:51.885,-1,1361.17216117216,5.17415221247974,33.1609333525412
1743292311904,19:51:51.904,-1,1344.32234432234,5.16904698089367,33.1609333525412
1743292311924,19:51:51.924,-1,1325.27472527473,5.16904698089367,33.1609333525412
1743292311943,19:51:51.943,-1,1299.6336996337,5.1639417493076,33.1609333525412
1743292311963,19:51:51.963,-1,1285.71428571429,5.1639417493076,33.1609333525412
1743292311982,19:51:51.982,-1,1272.52747252747,5.15883651772153,33.1609333525412
1743292312002,19:51:52.002,-1,1247.61904761905,5.15883651772153,33.1609333525412
1743292312021,19:51:52.021,-1,1205.86080586081,5.15883651772153,33.1609333525412
1743292312041,19:51:52.041,-1,1167.03296703297,5.15373128613547,33.1609333525412
1743292312060,19:51:52.060,-1,1138.46153846154,5.15373128613547,33.1609333525412
1743292312080,19:51:52.080,-1,1119.41391941392,5.1486260545494,33.1609333525412
1743292312099,19:51:52.099,-1,1097.4358974359,5.14352082296333,33.1609333525412
1743292312119,19:51:52.119,-1,1095.2380952381,5.14352082296333,33.1609333525412
1743292312138,19:51:52.138,-1,1096.7032967033,5.14352082296333,33.1609333525412
1743292312158,19:51:52.158,-1,1098.9010989011,5.14352082296333,33.1609333525412
1743292312177,19:51:52.177,-1,1086.44688644689,5.13841559137726,33.1609333525412
1743292312197,19:51:52.197,-1,1065.93406593407,5.13331035979119,33.1609333525412
1743292312216,19:51:52.216,-1,1049.81684981685,5.13331035979119,33.1609333525412
1743292312236,19:51:52.236,-1,1038.82783882784,5.13331035979119,33.1609333525412
1743292312255,19:51:52.255,-1,1046.15384615385,5.12820512820513,33.1609333525412
1743292312275,19:51:52.275,-1,1082.05128205128,5.12820512820513,33.1609333525412
1743292312294,19:51:52.294,-1,1151.64835164835,5.12820512820513,33.1609333525412
1743292312314,19:51:52.314,-1,1241.75824175824,5.12309989661906,33.1609333525412
1743292312333,19:51:52.333,-1,1333.33333333333,5.11799466503299,33.1609333525412
1743292312353,19:51:52.353,-1,1408.05860805861,5.11799466503299,33.1609333525412
1743292312372,19:51:52.372,-1,1446.15384615385,5.11799466503299,33.1609333525412
1743292312392,19:51:52.392,-1,1463.73626373626,5.11288943344692,33.1609333525412
1743292312411,19:51:52.411,-1,1468.86446886447,5.11288943344692,33.1609333525412
1743292312431,19:51:52.431,-1,1478.38827838828,5.10778420186086,33.1609333525412
1743292312450,19:51:52.450,-1,1484.24908424908,5.10778420186086,33.1609333525412
1743292312470,19:51:52.470,-1,1480.58608058608,5.10267897027479,33.1609333525412
1743292312489,19:51:52.489,-1,1463.73626373626,5.10267897027479,33.1609333525412
1743292312509,19:51:52.509,-1,1437.36263736264,5.09757373868872,33.1609333525412
1743292312528,19:51:52.528,-1,1389.01098901099,5.09757373868872,33.1609333525412
1743292312548,19:51:52.548,-1,1339.19413919414,5.09246850710265,33.1609333525412
1743292312567,19:51:52.567,-1,1295.9706959707,5.09246850710265,33.1609333525412
1743292312587,19:51:52.587,-1,1266.66666666667,5.09246850710265,33.1609333525412
1743292312606,19:51:52.606,-1,1246.88644688645,5.08736327551658,33.1609333525412
1743292312626,19:51:52.626,-1,1227.83882783883,5.08736327551658,33.1609333525412
1743292312645,19:51:52.645,-1,1205.86080586081,5.08736327551658,33.1609333525412
1743292312665,19:51:52.665,-1,1197.0695970696,5.08225804393052,33.1609333525412
1743292312684,19:51:52.684,-1,1194.13919413919,5.08225804393052,33.1609333525412
1743292312704,19:51:52.704,-1,1191.94139194139,5.07715281234445,33.1609333525412
1743292312723,19:51:52.723,-1,1175.82417582418,5.07715281234445,33.175944268587
1743292312743,19:51:52.743,-1,1156.04395604396,5.07715281234445,33.175944268587
1743292312762,19:51:52.762,-1,1144.32234432234,5.07204758075838,33.175944268587
1743292312782,19:51:52.782,-1,1135.53113553114,5.07204758075838,33.175944268587
1743292312801,19:51:52.801,-1,1113.55311355311,5.07204758075838,33.175944268587
1743292312821,19:51:52.821,-1,1082.05128205128,5.06694234917231,33.175944268587
1743292312840,19:51:52.840,-1,1072.52747252747,5.06694234917231,33.175944268587
1743292312860,19:51:52.860,-1,1071.79487179487,5.06694234917231,33.175944268587
1743292312879,19:51:52.879,-1,1075.45787545788,5.06183711758625,33.175944268587
1743292312899,19:51:52.899,-1,1079.12087912088,5.06183711758625,33.175944268587
1743292312918,19:51:52.918,-1,1067.39926739927,5.06183711758625,33.175944268587
1743292312938,19:51:52.938,-1,1053.47985347985,5.06183711758625,33.175944268587
1743292312957,19:51:52.957,-1,1033.69963369963,5.06183711758625,33.175944268587
1743292312977,19:51:52.977,-1,1036.63003663004,5.05673188600018,33.175944268587
1743292312996,19:51:52.996,-1,1055.67765567766,5.05673188600018,33.175944268587
1743292313016,19:51:53.016,-1,1095.9706959707,5.05162665441411,33.175944268587
1743292313035,19:51:53.035,-1,1154.57875457875,5.05162665441411,33.175944268587
1743292313055,19:51:53.055,-1,1221.24542124542,5.05162665441411,33.175944268587
1743292313074,19:51:53.074,-1,1290.10989010989,5.05162665441411,33.175944268587
1743292313094,19:51:53.094,-1,1331.13553113553,5.04652142282804,33.175944268587
1743292313113,19:51:53.113,-1,1349.45054945055,5.04652142282804,33.175944268587
1743292313133,19:51:53.133,-1,1357.50915750916,5.04141619124197,33.175944268587
1743292313152,19:51:53.152,-1,1359.70695970696,5.04141619124197,33.175944268587
1743292313172,19:51:53.172,-1,1355.31135531136,5.04141619124197,33.175944268587
1743292313191,19:51:53.191,-1,1340.65934065934,5.03631095965591,33.175944268587
1743292313211,19:51:53.211,-1,1339.19413919414,5.03631095965591,33.175944268587
1743292313230,19:51:53.230,-1,1346.52014652015,5.03631095965591,33.175944268587
1743292313250,19:51:53.250,-1,1332.60073260073,5.03120572806984,33.175944268587
1743292313269,19:51:53.269,-1,1301.8315018315,5.03120572806984,33.175944268587
1743292313289,19:51:53.289,-1,1276.19047619048,5.03120572806984,33.175944268587
1743292313308,19:51:53.308,-1,1252.01465201465,5.03120572806984,33.175944268587
1743292313328,19:51:53.328,-1,1233.69963369963,5.03120572806984,33.175944268587
1743292313347,19:51:53.347,-1,1220.51282051282,5.02610049648377,33.175944268587
1743292313367,19:51:53.367,-1,1215.38461538462,5.02610049648377,33.175944268587
1743292313386,19:51:53.386,-1,1212.45421245421,5.02610049648377,33.175944268587
1743292313406,19:51:53.406,-1,1190.47619047619,5.0209952648977,33.175944268587
1743292313425,19:51:53.425,-1,1158.24175824176,5.0209952648977,33.175944268587
1743292313445,19:51:53.445,-1,1145.78754578755,5.0209952648977,33.175944268587
1743292313464,19:51:53.464,-1,1140.65934065934,5.01589003331164,33.175944268587
1743292313484,19:51:53.484,-1,1136.99633699634,5.01589003331164,33.175944268587
1743292313503,19:51:53.503,-1,1128.93772893773,5.01589003331164,33.175944268587
1743292313523,19:51:53.523,-1,1105.49450549451,5.01589003331164,33.175944268587
1743292313542,19:51:53.542,-1,1074.72527472527,5.01078480172557,33.175944268587
1743292313562,19:51:53.562,-1,1058.60805860806,5.01078480172557,33.175944268587
1743292313581,19:51:53.581,-1,1057.14285714286,5.01078480172557,33.175944268587
1743292313601,19:51:53.601,-1,1058.60805860806,5.0056795701395,33.175944268587
1743292313620,19:51:53.620,-1,1057.87545787546,5.0056795701395,33.175944268587
1743292313640,19:51:53.640,-1,1071.79487179487,5.0056795701395,33.175944268587
1743292313659,19:51:53.659,-1,1093.77289377289,5.0056795701395,33.175944268587
1743292313679,19:51:53.679,-1,1109.15750915751,5.0056795701395,33.175944268587
1743292313698,19:51:53.698,-1,1106.95970695971,5.0056795701395,33.175944268587
1743292313718,19:51:53.718,-1,1109.15750915751,5.0056795701395,33.175944268587
1743292313737,19:51:53.737,-1,1117.94871794872,5.0056795701395,33.175944268587
1743292313757,19:51:53.757,-1,1131.13553113553,5.00057433855343,33.175944268587
1743292313776,19:51:53.776,-1,1154.57875457875,5.00057433855343,33.175944268587
1743292313796,19:51:53.796,-1,1200.7326007326,5.00057433855343,33.175944268587
1743292313815,19:51:53.815,-1,1243.95604395604,5.00057433855343,33.175944268587
1743292313835,19:51:53.835,-1,1276.19047619048,4.99546910696736,33.175944268587
1743292313854,19:51:53.854,-1,1309.15750915751,4.99546910696736,33.175944268587
1743292313874,19:51:53.874,-1,1331.13553113553,4.9903638753813,33.175944268587
1743292313893,19:51:53.893,-1,1352.38095238095,4.99546910696736,33.175944268587
1743292313913,19:51:53.913,-1,1356.77655677656,4.9903638753813,33.175944268587
1743292313932,19:51:53.932,-1,1339.92673992674,4.9903638753813,33.175944268587
1743292313952,19:51:53.952,-1,1334.79853479853,4.98525864379523,33.175944268587
1743292313971,19:51:53.971,-1,1336.26373626374,4.98525864379523,33.175944268587
1743292313991,19:51:53.991,-1,1326.73992673993,4.98525864379523,33.175944268587
1743292314010,19:51:54.010,-1,1305.49450549451,4.98525864379523,33.175944268587
1743292314030,19:51:54.030,-1,1280.58608058608,4.98015341220916,33.175944268587
1743292314049,19:51:54.049,-1,1261.53846153846,4.98015341220916,33.175944268587
1743292314069,19:51:54.069,-1,1252.74725274725,4.98015341220916,33.175944268587
1743292314088,19:51:54.088,-1,1249.08424908425,4.97504818062309,33.175944268587
1743292314108,19:51:54.108,-1,1230.76923076923,4.97504818062309,33.175944268587
1743292314127,19:51:54.127,-1,1214.65201465201,4.97504818062309,33.175944268587
1743292314147,19:51:54.147,-1,1202.9304029304,4.96994294903702,33.175944268587
1743292314166,19:51:54.166,-1,1194.87179487179,4.96994294903702,33.175944268587
1743292314186,19:51:54.186,-1,1201.4652014652,4.96994294903702,33.175944268587
1743292314205,19:51:54.205,-1,1199.2673992674,4.96994294903702,33.175944268587
1743292314225,19:51:54.225,-1,1181.68498168498,4.96994294903702,33.175944268587
1743292314244,19:51:54.244,-1,1180.95238095238,4.96994294903702,33.175944268587
1743292314264,19:51:54.264,-1,1180.21978021978,4.96994294903702,33.175944268587
1743292314283,19:51:54.283,-1,1174.35897435897,4.96994294903702,33.175944268587
1743292314303,19:51:54.303,-1,1176.55677655678,4.96483771745096,33.175944268587
1743292314322,19:51:54.322,-1,1164.10256410256,4.96483771745096,33.175944268587
1743292314342,19:51:54.342,-1,1163.36996336996,4.96483771745096,33.175944268587
1743292314361,19:51:54.361,-1,1158.97435897436,4.96483771745096,33.175944268587
1743292314381,19:51:54.381,-1,1157.50915750916,4.96483771745096,33.175944268587
1743292314400,19:51:54.400,-1,1142.85714285714,4.96483771745096,33.175944268587
1743292314420,19:51:54.420,-1,1136.26373626374,4.95973248586489,33.175944268587
1743292314439,19:51:54.439,-1,1123.80952380952,4.95973248586489,33.175944268587
1743292314459,19:51:54.459,-1,1127.47252747253,4.95973248586489,33.175944268587
1743292314478,19:51:54.478,-1,1142.12454212454,4.95973248586489,33.175944268587
1743292314498,19:51:54.498,-1,1150.91575091575,4.95973248586489,33.175944268587
1743292314517,19:51:54.517,-1,1153.11355311355,4.95973248586489,33.175944268587
1743292314537,19:51:54.537,-1,1170.69597069597,4.95462725427882,33.175944268587
1743292314556,19:51:54.556,-1,1198.5347985348,4.95462725427882,33.175944268587
1743292314576,19:51:54.576,-1,1232.96703296703,4.95462725427882,33.175944268587
1743292314595,19:51:54.595,-1,1276.92307692308,4.95462725427882,33.175944268587
1743292314615,19:51:54.615,-1,1312.08791208791,4.94952202269275,33.175944268587
1743292314634,19:51:54.634,-1,1344.32234432234,4.94952202269275,33.175944268587
1743292314654,19:51:54.654,-1,1373.62637362637,4.94952202269275,33.175944268587
1743292314673,19:51:54.673,-1,1394.13919413919,4.94952202269275,33.175944268587
1743292314693,19:51:54.693,-1,1398.5347985348,4.94441679110669,33.175944268587
1743292314712,19:51:54.712,-1,1391.94139194139,4.94441679110669,33.175944268587
1743292314732,19:51:54.732,-1,1389.74358974359,4.94441679110669,33.175944268587
1743292314751,19:51:54.751,-1,1398.5347985348,4.94441679110669,33.175944268587
1743292314771,19:51:54.771,-1,1397.0695970696,4.93931155952062,33.175944268587
1743292314790,19:51:54.790,-1,1379.48717948718,4.93931155952062,33.175944268587
1743292314810,19:51:54.810,-1,1345.05494505494,4.93931155952062,33.175944268587
1743292314829,19:51:54.829,-1,1306.95970695971,4.93931155952062,33.175944268587
1743292314849,19:51:54.849,-1,1287.17948717949,4.93420632793455,33.175944268587
1743292314868,19:51:54.868,-1,1297.4358974359,4.93420632793455,33.175944268587
1743292314888,19:51:54.888,-1,1303.2967032967,4.93420632793455,33.175944268587
1743292314907,19:51:54.907,-1,1297.4358974359,4.93420632793455,33.175944268587
1743292314927,19:51:54.927,-1,1287.17948717949,4.92910109634848,33.175944268587
1743292314946,19:51:54.946,-1,1273.26007326007,4.92910109634848,33.175944268587
1743292314966,19:51:54.966,-1,1264.46886446886,4.92910109634848,33.175944268587
1743292314985,19:51:54.985,-1,1257.87545787546,4.92910109634848,33.175944268587
1743292315005,19:51:55.005,-1,1258.60805860806,4.92399586476242,33.175944268587
1743292315024,19:51:55.024,-1,1252.74725274725,4.92910109634848,33.175944268587
1743292315044,19:51:55.044,-1,1252.01465201465,4.92399586476242,33.175944268587
1743292315063,19:51:55.063,-1,1236.63003663004,4.92399586476242,33.175944268587
1743292315083,19:51:55.083,-1,1230.03663003663,4.92399586476242,33.175944268587
1743292315102,19:51:55.102,-1,1223.44322344322,4.92399586476242,33.175944268587
1743292315122,19:51:55.122,-1,1225.64102564103,4.92399586476242,33.175944268587
1743292315141,19:51:55.141,-1,1226.37362637363,4.91889063317635,33.175944268587
1743292315161,19:51:55.161,-1,1209.52380952381,4.91889063317635,33.175944268587
1743292315180,19:51:55.180,-1,1201.4652014652,4.91889063317635,33.175944268587
1743292315200,19:51:55.200,-1,1207.32600732601,4.91889063317635,33.175944268587
1743292315219,19:51:55.219,-1,1205.12820512821,4.91889063317635,33.175944268587
1743292315239,19:51:55.239,-1,1202.9304029304,4.91378540159028,33.175944268587
1743292315258,19:51:55.258,-1,1208.79120879121,4.91378540159028,33.175944268587
1743292315278,19:51:55.278,-1,1212.45421245421,4.91378540159028,33.175944268587
1743292315297,19:51:55.297,-1,1199.2673992674,4.91378540159028,33.175944268587
1743292315317,19:51:55.317,-1,1186.08058608059,4.91378540159028,33.175944268587
1743292315336,19:51:55.336,-1,1164.83516483516,4.91378540159028,33.175944268587
1743292315356,19:51:55.356,-1,1159.70695970696,4.91378540159028,33.175944268587
1743292315375,19:51:55.375,-1,1163.36996336996,4.90868017000421,33.175944268587
1743292315395,19:51:55.395,-1,1170.69597069597,4.91378540159028,33.175944268587
1743292315414,19:51:55.414,-1,1203.663003663,4.91378540159028,33.175944268587
1743292315434,19:51:55.434,-1,1249.08424908425,4.91378540159028,33.175944268587
1743292315453,19:51:55.453,-1,1297.4358974359,4.91378540159028,33.175944268587
1743292315473,19:51:55.473,-1,1342.85714285714,4.91378540159028,33.175944268587
1743292315492,19:51:55.492,-1,1399.2673992674,4.91378540159028,33.175944268587
1743292315512,19:51:55.512,-1,1440.29304029304,4.91378540159028,33.175944268587
1743292315531,19:51:55.531,-1,1456.41025641026,4.91889063317635,33.175944268587
1743292315551,19:51:55.551,-1,1466.66666666667,4.91378540159028,33.175944268587
1743292315570,19:51:55.570,-1,1490.84249084249,4.91889063317635,33.175944268587
1743292315590,19:51:55.590,-1,1504.7619047619,4.91889063317635,33.175944268587
1743292315609,19:51:55.609,-1,1523.80952380952,4.92399586476242,33.175944268587
1743292315629,19:51:55.629,-1,1542.85714285714,4.92399586476242,33.175944268587
1743292315648,19:51:55.648,-1,1551.64835164835,4.92910109634848,33.175944268587
1743292315668,19:51:55.668,-1,1540.65934065934,4.93420632793455,33.175944268587
1743292315687,19:51:55.687,-1,1511.35531135531,4.93931155952062,33.175944268587
1743292315707,19:51:55.707,-1,1476.19047619048,4.94441679110669,33.175944268587
1743292315726,19:51:55.726,-1,1460.80586080586,4.94952202269275,33.175944268587
1743292315746,19:51:55.746,-1,1452.74725274725,4.94952202269275,33.175944268587
1743292315765,19:51:55.765,-1,1440.29304029304,4.95462725427882,33.175944268587
1743292315785,19:51:55.785,-1,1437.36263736264,4.96483771745096,33.175944268587
1743292315804,19:51:55.804,-1,1438.82783882784,4.96994294903702,33.175944268587
1743292315824,19:51:55.824,-1,1441.02564102564,4.98015341220916,33.175944268587
1743292315843,19:51:55.843,-1,1435.16483516484,4.98525864379523,33.175944268587
1743292315863,19:51:55.863,-1,1428.57142857143,4.9903638753813,33.175944268587
1743292315882,19:51:55.882,-1,1415.38461538462,5.00057433855343,33.175944268587
1743292315902,19:51:55.902,-1,1392.67399267399,5.0056795701395,33.175944268587
1743292315921,19:51:55.921,-1,1378.75457875458,5.01589003331164,33.175944268587
1743292315941,19:51:55.941,-1,1363.36996336996,5.02610049648377,33.175944268587
1743292315960,19:51:55.960,-1,1350.91575091575,5.03631095965591,33.175944268587
1743292315980,19:51:55.980,-1,1336.99633699634,5.04141619124197,33.175944268587
1743292315999,19:51:55.999,-1,1326.00732600733,5.04652142282804,33.175944268587
1743292316019,19:51:56.019,-1,1326.73992673993,5.05673188600018,33.175944268587
1743292316038,19:51:56.038,-1,1327.47252747253,5.06694234917231,33.175944268587
1743292316058,19:51:56.058,-1,1317.94871794872,5.07204758075838,33.175944268587
1743292316077,19:51:56.077,-1,1286.44688644689,5.08225804393052,33.175944268587
1743292316097,19:51:56.097,-1,1264.46886446886,5.09246850710265,33.175944268587
1743292316116,19:51:56.116,-1,1249.81684981685,5.09757373868872,33.175944268587
1743292316136,19:51:56.136,-1,1246.15384615385,5.10778420186086,33.175944268587
1743292316155,19:51:56.155,-1,1254.21245421245,5.11799466503299,33.175944268587
1743292316175,19:51:56.175,-1,1271.79487179487,5.12309989661906,33.175944268587
1743292316194,19:51:56.194,-1,1287.17948717949,5.13331035979119,33.175944268587
1743292316214,19:51:56.214,-1,1284.24908424908,5.14352082296333,33.175944268587
1743292316233,19:51:56.233,-1,1282.78388278388,5.1486260545494,33.175944268587
1743292316253,19:51:56.253,-1,1281.31868131868,5.15883651772153,33.175944268587
1743292316272,19:51:56.272,-1,1267.39926739927,5.16904698089367,33.175944268587
1743292316292,19:51:56.292,-1,1260.07326007326,5.17415221247974,33.175944268587
1743292316311,19:51:56.311,-1,1270.32967032967,5.18946790723794,33.175944268587
1743292316331,19:51:56.331,-1,1300.3663003663,5.19457313882401,33.175944268587
1743292316350,19:51:56.350,-1,1352.38095238095,5.20478360199614,33.175944268587
1743292316370,19:51:56.370,-1,1424.90842490842,5.21499406516828,33.175944268587
1743292316389,19:51:56.389,-1,1482.78388278388,5.22520452834042,33.175944268587
1743292316409,19:51:56.409,-1,1545.05494505494,5.23030975992649,33.175944268587
1743292316428,19:51:56.428,-1,1595.6043956044,5.24052022309862,33.175944268587
1743292316448,19:51:56.448,-1,1641.02564102564,5.24562545468469,33.175944268587
1743292316467,19:51:56.467,-1,1675.45787545788,5.25583591785682,33.175944268587
1743292316487,19:51:56.487,-1,1697.4358974359,5.26094114944289,33.175944268587
1743292316506,19:51:56.506,-1,1714.28571428571,5.27115161261503,33.175944268587
1743292316526,19:51:56.526,-1,1716.48351648352,5.28136207578716,33.175944268587
1743292316545,19:51:56.545,-1,1705.49450549451,5.2915725389593,33.175944268587
1743292316565,19:51:56.565,-1,1679.85347985348,5.29667777054536,33.175944268587
1743292316584,19:51:56.584,-1,1667.39926739927,5.3068882337175,33.175944268587
1743292316604,19:51:56.604,-1,1652.74725274725,5.31709869688964,33.175944268587
1743292316623,19:51:56.623,-1,1643.22344322344,5.32220392847571,33.175944268587
1743292316643,19:51:56.643,-1,1638.09523809524,5.33241439164784,33.175944268587
1743292316662,19:51:56.662,-1,1624.17582417582,5.33751962323391,33.175944268587
1743292316682,19:51:56.682,-1,1605.12820512821,5.34773008640604,33.175944268587
1743292316701,19:51:56.701,-1,1593.40659340659,5.35794054957818,33.190955132246
1743292316721,19:51:56.721,-1,1578.02197802198,5.36815101275032,33.190955132246
1743292316740,19:51:56.740,-1,1558.97435897436,5.37325624433638,33.190955132246
1743292316760,19:51:56.760,-1,1553.11355311355,5.38346670750852,33.190955132246
1743292316779,19:51:56.779,-1,1548.71794871795,5.38857193909459,33.190955132246
1743292316799,19:51:56.799,-1,1536.99633699634,5.39878240226672,33.190955132246
1743292316818,19:51:56.818,-1,1533.33333333333,5.40388763385279,33.190955132246
1743292316838,19:51:56.838,-1,1513.55311355311,5.41409809702493,33.190955132246
1743292316857,19:51:56.857,-1,1495.9706959707,5.42430856019706,33.190955132246
1743292316877,19:51:56.877,-1,1477.65567765568,5.42941379178313,33.190955132246
1743292316896,19:51:56.896,-1,1442.49084249084,5.43962425495527,33.190955132246
1743292316916,19:51:56.916,-1,1412.45421245421,5.4498347181274,33.190955132246
1743292316935,19:51:56.935,-1,1398.5347985348,5.45493994971347,33.190955132246
1743292316955,19:51:56.955,-1,1391.94139194139,5.46515041288561,33.190955132246
1743292316974,19:51:56.974,-1,1386.08058608059,5.47025564447167,33.190955132246
1743292316994,19:51:56.994,-1,1369.96336996337,5.48046610764381,33.190955132246
1743292317013,19:51:57.013,-1,1366.30036630037,5.48557133922987,33.190955132246
1743292317033,19:51:57.033,-1,1355.31135531136,5.49067657081594,33.190955132246
1743292317052,19:51:57.052,-1,1351.64835164835,5.50088703398808,33.190955132246
1743292317072,19:51:57.072,-1,1329.67032967033,5.50599226557415,33.190955132246
1743292317091,19:51:57.091,-1,1306.95970695971,5.51109749716022,33.190955132246
1743292317111,19:51:57.111,-1,1296.7032967033,5.51620272874628,33.190955132246
1743292317130,19:51:57.130,-1,1295.9706959707,5.52641319191842,33.190955132246
1743292317150,19:51:57.150,-1,1319.41391941392,5.53151842350448,33.190955132246
1743292317169,19:51:57.169,-1,1391.20879120879,5.53662365509055,33.190955132246
1743292317189,19:51:57.189,-1,1497.4358974359,5.54172888667662,33.190955132246
1743292317208,19:51:57.208,-1,1618.31501831502,5.54172888667662,33.190955132246
1743292317228,19:51:57.228,-1,1739.92673992674,5.54683411826269,33.190955132246
1743292317247,19:51:57.247,-1,1844.68864468864,5.55193934984876,33.190955132246
1743292317267,19:51:57.267,-1,1912.08791208791,5.55193934984876,33.190955132246
1743292317286,19:51:57.286,-1,1962.63736263736,5.55704458143483,33.190955132246
1743292317306,19:51:57.306,-1,2005.86080586081,5.56214981302089,33.190955132246
1743292317325,19:51:57.325,-1,2024.17582417582,5.56725504460696,33.190955132246
1743292317345,19:51:57.345,-1,2021.24542124542,5.57236027619303,33.190955132246
1743292317364,19:51:57.364,-1,1999.2673992674,5.5774655077791,33.190955132246
1743292317384,19:51:57.384,-1,1974.35897435897,5.58257073936516,33.190955132246
1743292317403,19:51:57.403,-1,1935.53113553114,5.5927812025373,33.190955132246
1743292317423,19:51:57.423,-1,1879.12087912088,5.59788643412337,33.190955132246
1743292317442,19:51:57.442,-1,1837.36263736264,5.60299166570943,33.190955132246
1743292317462,19:51:57.462,-1,1802.1978021978,5.61320212888157,33.190955132246
1743292317481,19:51:57.481,-1,1773.62637362637,5.61830736046764,33.190955132246
1743292317501,19:51:57.501,-1,1748.71794871795,5.62851782363977,33.190955132246
1743292317520,19:51:57.520,-1,1728.20512820513,5.63362305522584,33.190955132246
1743292317540,19:51:57.540,-1,1704.7619047619,5.63872828681191,33.190955132246
1743292317559,19:51:57.559,-1,1676.19047619048,5.64383351839798,33.190955132246
1743292317579,19:51:57.579,-1,1657.87545787546,5.65404398157011,33.190955132246
1743292317598,19:51:57.598,-1,1649.08424908425,5.66425444474225,33.190955132246
1743292317618,19:51:57.618,-1,1639.56043956044,5.66935967632832,33.190955132246
1743292317637,19:51:57.637,-1,1606.59340659341,5.67446490791438,33.190955132246
1743292317657,19:51:57.657,-1,1568.49816849817,5.68467537108652,33.190955132246
1743292317676,19:51:57.676,-1,1534.06593406593,5.68978060267259,33.190955132246
1743292317696,19:51:57.696,-1,1485.71428571429,5.69488583425865,33.1809478956275
1743292317715,19:51:57.715,-1,1448.35164835165,5.70509629743079,33.1809478956275
1743292317735,19:51:57.735,-1,1423.44322344322,5.71020152901686,33.1809478956275
1743292317754,19:51:57.754,-1,1397.0695970696,5.720411992189,33.1809478956275
1743292317774,19:51:57.774,-1,1382.41758241758,5.72551722377506,33.1809478956275
1743292317793,19:51:57.793,-1,1361.17216117216,5.7357276869472,33.1809478956275
1743292317813,19:51:57.813,-1,1333.33333333333,5.74083291853327,33.1809478956275
1743292317832,19:51:57.832,-1,1315.75091575092,5.74593815011933,33.1809478956275
1743292317852,19:51:57.852,-1,1311.35531135531,5.75614861329147,33.1809478956275
1743292317871,19:51:57.871,-1,1306.22710622711,5.76125384487754,33.1809478956275
1743292317891,19:51:57.891,-1,1305.49450549451,5.7663590764636,33.1809478956275
1743292317910,19:51:57.910,-1,1304.7619047619,5.77656953963574,33.1809478956275
1743292317930,19:51:57.930,-1,1300.3663003663,5.78167477122181,33.1809478956275
1743292317949,19:51:57.949,-1,1301.0989010989,5.78167477122181,33.1809478956275
1743292317969,19:51:57.969,-1,1348.71794871795,5.78678000280788,33.1809478956275
1743292317988,19:51:57.988,-1,1454.94505494505,5.79188523439394,33.1809478956275
1743292318008,19:51:58.008,-1,1610.98901098901,5.79699046598001,33.1809478956275
1743292318027,19:51:58.027,-1,1786.08058608059,5.79699046598001,33.1809478956275
1743292318047,19:51:58.047,-1,1941.39194139194,5.79699046598001,33.1809478956275
1743292318066,19:51:58.066,-1,2062.27106227106,5.80209569756608,33.1809478956275
1743292318086,19:51:58.086,-1,2131.86813186813,5.80209569756608,33.1809478956275
1743292318105,19:51:58.105,-1,2164.10256410256,5.80209569756608,33.1809478956275
1743292318125,19:51:58.125,-1,2167.03296703297,5.80209569756608,33.1809478956275
1743292318144,19:51:58.144,-1,2156.04395604396,5.80720092915215,33.1809478956275
1743292318164,19:51:58.164,-1,2137.72893772894,5.80209569756608,33.1809478956275
1743292318183,19:51:58.183,-1,2115.01831501831,5.80720092915215,33.1809478956275
1743292318203,19:51:58.203,-1,2091.57509157509,5.80720092915215,33.1809478956275
1743292318222,19:51:58.222,-1,2043.22344322344,5.80720092915215,33.1809478956275
1743292318242,19:51:58.242,-1,1972.89377289377,5.80720092915215,33.1809478956275
1743292318261,19:51:58.261,-1,1898.1684981685,5.80720092915215,33.1809478956275
1743292318281,19:51:58.281,-1,1827.83882783883,5.80209569756608,33.1809478956275
1743292318300,19:51:58.300,-1,1773.62637362637,5.80209569756608,33.1809478956275
1743292318320,19:51:58.320,-1,1734.06593406593,5.80209569756608,33.1809478956275
1743292318339,19:51:58.339,-1,1710.62271062271,5.79699046598001,33.1809478956275
1743292318359,19:51:58.359,-1,1687.91208791209,5.79699046598001,33.1809478956275
1743292318378,19:51:58.378,-1,1663.00366300366,5.79699046598001,33.1809478956275
1743292318398,19:51:58.398,-1,1623.44322344322,5.79699046598001,33.1809478956275
1743292318417,19:51:58.417,-1,1580.21978021978,5.79188523439394,33.1809478956275
1743292318437,19:51:58.437,-1,1529.67032967033,5.78678000280788,33.1809478956275
1743292318456,19:51:58.456,-1,1491.57509157509,5.78678000280788,33.1809478956275
1743292318476,19:51:58.476,-1,1457.87545787546,5.78678000280788,33.1809478956275
1743292318495,19:51:58.495,-1,1440.29304029304,5.78167477122181,33.1809478956275
1743292318515,19:51:58.515,-1,1419.78021978022,5.78167477122181,33.1809478956275
1743292318534,19:51:58.534,-1,1376.55677655678,5.78167477122181,33.1809478956275
1743292318554,19:51:58.554,-1,1339.19413919414,5.77656953963574,33.1809478956275
1743292318573,19:51:58.573,-1,1317.21611721612,5.77656953963574,33.1809478956275
1743292318593,19:51:58.593,-1,1297.4358974359,5.77656953963574,33.1809478956275
1743292318612,19:51:58.612,-1,1290.10989010989,5.77146430804967,33.1809478956275
1743292318632,19:51:58.632,-1,1284.24908424908,5.77146430804967,33.1809478956275
1743292318651,19:51:58.651,-1,1265.20146520147,5.77146430804967,33.1809478956275
1743292318671,19:51:58.671,-1,1249.08424908425,5.7663590764636,33.1809478956275
1743292318690,19:51:58.690,-1,1234.43223443223,5.7663590764636,33.190955132246
1743292318710,19:51:58.710,-1,1225.64102564103,5.76125384487754,33.190955132246
1743292318729,19:51:58.729,-1,1210.98901098901,5.76125384487754,33.190955132246
1743292318749,19:51:58.749,-1,1186.08058608059,5.76125384487754,33.190955132246
1743292318768,19:51:58.768,-1,1176.55677655678,5.75614861329147,33.190955132246
1743292318788,19:51:58.788,-1,1185.34798534799,5.7510433817054,33.190955132246
1743292318807,19:51:58.807,-1,1232.23443223443,5.74593815011933,33.190955132246
1743292318827,19:51:58.827,-1,1341.39194139194,5.74593815011933,33.190955132246
1743292318846,19:51:58.846,-1,1520.14652014652,5.74083291853327,33.190955132246
1743292318866,19:51:58.866,-1,1729.67032967033,5.7357276869472,33.190955132246
1743292318885,19:51:58.885,-1,1934.06593406593,5.7357276869472,33.190955132246
1743292318905,19:51:58.905,-1,2084.98168498168,5.72551722377506,33.190955132246
1743292318924,19:51:58.924,-1,2164.10256410256,5.72551722377506,33.190955132246
1743292318944,19:51:58.944,-1,2203.663003663,5.720411992189,33.190955132246
1743292318963,19:51:58.963,-1,2194.13919413919,5.71530676060293,33.190955132246
1743292318983,19:51:58.983,-1,2165.56776556777,5.70509629743079,33.190955132246
1743292319002,19:51:59.002,-1,2129.67032967033,5.70509629743079,33.190955132246
1743292319022,19:51:59.022,-1,2096.7032967033,5.69999106584472,33.190955132246
1743292319041,19:51:59.041,-1,2063.00366300366,5.69488583425865,33.190955132246
1743292319061,19:51:59.061,-1,2008.05860805861,5.68467537108652,33.190955132246
1743292319080,19:51:59.080,-1,1936.99633699634,5.67957013950045,33.190955132246
1743292319100,19:51:59.100,-1,1851.28205128205,5.67446490791438,33.190955132246
1743292319119,19:51:59.119,-1,1766.30036630037,5.66935967632832,33.190955132246
1743292319139,19:51:59.139,-1,1714.28571428571,5.65914921315618,33.190955132246
1743292319158,19:51:59.158,-1,1679.85347985348,5.65404398157011,33.190955132246
1743292319178,19:51:59.178,-1,1645.42124542125,5.64893874998404,33.190955132246
1743292319197,19:51:59.197,-1,1605.86080586081,5.64383351839798,33.190955132246
1743292319217,19:51:59.217,-1,1571.42857142857,5.63872828681191,33.190955132246
1743292319236,19:51:59.236,-1,1539.92673992674,5.63362305522584,33.190955132246
1743292319256,19:51:59.256,-1,1503.2967032967,5.62341259205371,33.190955132246
1743292319275,19:51:59.275,-1,1479.85347985348,5.61830736046764,33.190955132246
1743292319295,19:51:59.295,-1,1456.41025641026,5.61320212888157,33.190955132246
1743292319314,19:51:59.314,-1,1429.30402930403,5.6080968972955,33.190955132246
1743292319334,19:51:59.334,-1,1390.47619047619,5.60299166570943,33.190955132246
1743292319353,19:51:59.353,-1,1352.38095238095,5.59788643412337,33.190955132246
1743292319373,19:51:59.373,-1,1311.35531135531,5.58767597095123,33.190955132246
1743292319392,19:51:59.392,-1,1276.19047619048,5.58257073936516,33.190955132246
1743292319412,19:51:59.412,-1,1235.89743589744,5.5774655077791,33.190955132246
1743292319431,19:51:59.431,-1,1221.24542124542,5.57236027619303,33.190955132246
1743292319451,19:51:59.451,-1,1221.24542124542,5.56214981302089,33.190955132246
1743292319470,19:51:59.470,-1,1224.17582417582,5.56214981302089,33.190955132246
1743292319490,19:51:59.490,-1,1203.663003663,5.55193934984876,33.190955132246
1743292319509,19:51:59.509,-1,1183.88278388278,5.54683411826269,33.190955132246
1743292319529,19:51:59.529,-1,1176.55677655678,5.54683411826269,33.190955132246
1743292319548,19:51:59.548,-1,1173.62637362637,5.53662365509055,33.190955132246
1743292319568,19:51:59.568,-1,1171.42857142857,5.53151842350448,33.190955132246
1743292319587,19:51:59.587,-1,1210.98901098901,5.53151842350448,33.190955132246
1743292319607,19:51:59.607,-1,1312.82051282051,5.52130796033235,33.190955132246
1743292319626,19:51:59.626,-1,1485.71428571429,5.52130796033235,33.190955132246
1743292319646,19:51:59.646,-1,1701.0989010989,5.51109749716022,33.190955132246
1743292319665,19:51:59.665,-1,1904.0293040293,5.51109749716022,33.190955132246
1743292319685,19:51:59.685,-1,2050.54945054945,5.50599226557415,33.1959587418241
1743292319704,19:51:59.704,-1,2127.47252747253,5.49578180240201,33.1959587418241
1743292319724,19:51:59.724,-1,2140.65934065934,5.49067657081594,33.1959587418241
1743292319743,19:51:59.743,-1,2127.47252747253,5.49067657081594,33.1959587418241
1743292319763,19:51:59.763,-1,2104.7619047619,5.48557133922987,33.1959587418241
1743292319782,19:51:59.782,-1,2053.47985347985,5.48046610764381,33.1959587418241
1743292319802,19:51:59.802,-1,2004.3956043956,5.47536087605774,33.1959587418241
1743292319821,19:51:59.821,-1,1965.56776556777,5.47025564447167,33.1959587418241
1743292319841,19:51:59.841,-1,1895.9706959707,5.47025564447167,33.1959587418241
1743292319860,19:51:59.860,-1,1796.336996337,5.46515041288561,33.1959587418241
1743292319880,19:51:59.880,-1,1715.01831501831,5.46004518129954,33.1959587418241
1743292319899,19:51:59.899,-1,1639.56043956044,5.46004518129954,33.1959587418241
1743292319919,19:51:59.919,-1,1578.75457875458,5.45493994971347,33.1959587418241
1743292319938,19:51:59.938,-1,1528.93772893773,5.45493994971347,33.1959587418241
1743292319958,19:51:59.958,-1,1497.4358974359,5.4498347181274,33.1959587418241
1743292319977,19:51:59.977,-1,1490.84249084249,5.4498347181274,33.1959587418241
1743292319997,19:51:59.997,-1,1487.17948717949,5.44472948654133,33.1959587418241
1743292320016,19:52:00.016,-1,1475.45787545788,5.44472948654133,33.1959587418241
1743292320036,19:52:00.036,-1,1449.81684981685,5.44472948654133,33.1959587418241
1743292320055,19:52:00.055,-1,1421.24542124542,5.44472948654133,33.1959587418241
1743292320075,19:52:00.075,-1,1386.81318681319,5.44472948654133,33.1959587418241
1743292320094,19:52:00.094,-1,1342.12454212454,5.44472948654133,33.1959587418241
1743292320114,19:52:00.114,-1,1284.98168498168,5.43962425495527,33.1959587418241
1743292320133,19:52:00.133,-1,1242.49084249084,5.43962425495527,33.1959587418241
1743292320153,19:52:00.153,-1,1210.98901098901,5.43962425495527,33.1959587418241
1743292320172,19:52:00.172,-1,1187.54578754579,5.43962425495527,33.1959587418241
1743292320192,19:52:00.192,-1,1175.82417582418,5.43962425495527,33.1959587418241
1743292320211,19:52:00.211,-1,1183.88278388278,5.43962425495527,33.1959587418241
1743292320231,19:52:00.231,-1,1177.28937728938,5.43962425495527,33.1959587418241
1743292320250,19:52:00.250,-1,1156.04395604396,5.4345190233692,33.1959587418241
1743292320270,19:52:00.270,-1,1104.7619047619,5.4345190233692,33.1959587418241
1743292320289,19:52:00.289,-1,1035.16483516484,5.4345190233692,33.1959587418241
1743292320309,19:52:00.309,-1,1007.32600732601,5.4345190233692,33.1959587418241
1743292320328,19:52:00.328,-1,1080.58608058608,5.4345190233692,33.1959587418241
1743292320348,19:52:00.348,-1,1245.42124542125,5.4345190233692,33.1959587418241
1743292320367,19:52:00.367,-1,1459.34065934066,5.4345190233692,33.1959587418241
1743292320387,19:52:00.387,-1,1687.17948717949,5.4345190233692,33.1959587418241
1743292320406,19:52:00.406,-1,1887.17948717949,5.4345190233692,33.1959587418241
1743292320426,19:52:00.426,-1,2030.76923076923,5.4345190233692,33.1959587418241
1743292320445,19:52:00.445,-1,2095.23809523809,5.4345190233692,33.1959587418241
1743292320465,19:52:00.465,-1,2104.7619047619,5.42941379178313,33.1959587418241
1743292320484,19:52:00.484,-1,2082.05128205128,5.42941379178313,33.1959587418241
1743292320504,19:52:00.504,-1,2054.21245421245,5.42941379178313,33.1959587418241
1743292320523,19:52:00.523,-1,2020.51282051282,5.42941379178313,33.1959587418241
1743292320543,19:52:00.543,-1,1978.02197802198,5.42941379178313,33.1959587418241
1743292320562,19:52:00.562,-1,1909.15750915751,5.42941379178313,33.1959587418241
1743292320582,19:52:00.582,-1,1816.11721611722,5.42941379178313,33.1959587418241
1743292320601,19:52:00.601,-1,1721.61172161172,5.42941379178313,33.1959587418241
1743292320621,19:52:00.621,-1,1641.75824175824,5.42941379178313,33.1959587418241
1743292320640,19:52:00.640,-1,1577.28937728938,5.42941379178313,33.1959587418241
1743292320660,19:52:00.660,-1,1531.86813186813,5.42941379178313,33.1959587418241
1743292320679,19:52:00.679,-1,1492.30769230769,5.42430856019706,33.1959587418241
1743292320699,19:52:00.699,-1,1454.21245421245,5.42430856019706,33.1959587418241
1743292320718,19:52:00.718,-1,1429.30402930403,5.42430856019706,33.1959587418241
1743292320738,19:52:00.738,-1,1402.9304029304,5.42941379178313,33.1959587418241
1743292320757,19:52:00.757,-1,1367.03296703297,5.42430856019706,33.1959587418241
1743292320777,19:52:00.777,-1,1329.67032967033,5.42941379178313,33.1959587418241
1743292320796,19:52:00.796,-1,1308.42490842491,5.42430856019706,33.1959587418241
1743292320816,19:52:00.816,-1,1298.1684981685,5.42430856019706,33.1959587418241
1743292320835,19:52:00.835,-1,1271.06227106227,5.42430856019706,33.1959587418241
1743292320855,19:52:00.855,-1,1240.29304029304,5.42430856019706,33.1959587418241
1743292320874,19:52:00.874,-1,1211.72161172161,5.42430856019706,33.1959587418241
1743292320894,19:52:00.894,-1,1196.336996337,5.42430856019706,33.1959587418241
1743292320913,19:52:00.913,-1,1189.74358974359,5.42430856019706,33.1959587418241
1743292320933,19:52:00.933,-1,1172.16117216117,5.41920332861099,33.1959587418241
1743292320952,19:52:00.952,-1,1153.11355311355,5.42430856019706,33.1959587418241
1743292320972,19:52:00.972,-1,1139.19413919414,5.42430856019706,33.1959587418241
1743292320991,19:52:00.991,-1,1116.48351648352,5.41920332861099,33.1959587418241
1743292321011,19:52:01.011,-1,1082.05128205128,5.41920332861099,33.1959587418241
1743292321030,19:52:01.030,-1,1047.61904761905,5.41920332861099,33.1959587418241
1743292321050,19:52:01.050,-1,1019.78021978022,5.41920332861099,33.1959587418241
1743292321069,19:52:01.069,-1,1027.10622710623,5.41920332861099,33.1959587418241
1743292321089,19:52:01.089,-1,1129.67032967033,5.41920332861099,33.1959587418241
1743292321108,19:52:01.108,-1,1331.86813186813,5.41920332861099,33.1959587418241
1743292321128,19:52:01.128,-1,1560.43956043956,5.41920332861099,33.1959587418241
1743292321147,19:52:01.147,-1,1750.91575091575,5.41920332861099,33.1959587418241
1743292321167,19:52:01.167,-1,1898.1684981685,5.41409809702493,33.1959587418241
1743292321186,19:52:01.186,-1,1981.68498168498,5.41409809702493,33.1959587418241
1743292321206,19:52:01.206,-1,2008.05860805861,5.41409809702493,33.1959587418241
1743292321225,19:52:01.225,-1,2008.05860805861,5.41409809702493,33.1959587418241
1743292321245,19:52:01.245,-1,1988.27838827839,5.41409809702493,33.1959587418241
1743292321264,19:52:01.264,-1,1950.91575091575,5.41409809702493,33.1959587418241
1743292321284,19:52:01.284,-1,1907.69230769231,5.41409809702493,33.1959587418241
1743292321303,19:52:01.303,-1,1864.46886446886,5.41409809702493,33.1959587418241
1743292321323,19:52:01.323,-1,1802.9304029304,5.40899286543886,33.1959587418241
1743292321342,19:52:01.342,-1,1709.15750915751,5.40899286543886,33.1959587418241
1743292321362,19:52:01.362,-1,1610.25641025641,5.40899286543886,33.1959587418241
1743292321381,19:52:01.381,-1,1535.53113553114,5.40388763385279,33.1959587418241
1743292321401,19:52:01.401,-1,1482.78388278388,5.40388763385279,33.1959587418241
1743292321420,19:52:01.420,-1,1445.42124542125,5.40388763385279,33.1959587418241
1743292321440,19:52:01.440,-1,1409.52380952381,5.40388763385279,33.1959587418241
1743292321459,19:52:01.459,-1,1382.41758241758,5.40388763385279,33.1959587418241
1743292321479,19:52:01.479,-1,1368.49816849817,5.40388763385279,33.1959587418241
1743292321498,19:52:01.498,-1,1363.36996336996,5.39878240226672,33.1959587418241
1743292321518,19:52:01.518,-1,1336.99633699634,5.39878240226672,33.1959587418241
1743292321537,19:52:01.537,-1,1289.37728937729,5.39367717068065,33.1959587418241
1743292321557,19:52:01.557,-1,1249.81684981685,5.39367717068065,33.1959587418241
1743292321576,19:52:01.576,-1,1223.44322344322,5.39367717068065,33.1959587418241
1743292321596,19:52:01.596,-1,1199.2673992674,5.39367717068065,33.1959587418241
1743292321615,19:52:01.615,-1,1160.43956043956,5.38857193909459,33.1959587418241
1743292321635,19:52:01.635,-1,1128.20512820513,5.38857193909459,33.1959587418241
1743292321654,19:52:01.654,-1,1100.3663003663,5.38857193909459,33.1959587418241
1743292321674,19:52:01.674,-1,1073.26007326007,5.38346670750852,33.190955132246
1743292321693,19:52:01.693,-1,1058.60805860806,5.38346670750852,33.190955132246
1743292321713,19:52:01.713,-1,1041.02564102564,5.38346670750852,33.190955132246
1743292321732,19:52:01.732,-1,1017.58241758242,5.37836147592245,33.190955132246
1743292321752,19:52:01.752,-1,1007.32600732601,5.37836147592245,33.190955132246
1743292321771,19:52:01.771,-1,999.267399267399,5.37836147592245,33.190955132246
1743292321791,19:52:01.791,-1,993.406593406593,5.37836147592245,33.190955132246
1743292321810,19:52:01.810,-1,983.882783882784,5.37325624433638,33.190955132246
1743292321830,19:52:01.830,-1,968.498168498168,5.37325624433638,33.190955132246
1743292321849,19:52:01.849,-1,951.648351648352,5.36815101275032,33.190955132246
1743292321869,19:52:01.869,-1,955.311355311355,5.36815101275032,33.190955132246
1743292321888,19:52:01.888,-1,989.010989010989,5.36815101275032,33.190955132246
1743292321908,19:52:01.908,-1,1101.8315018315,5.36304578116425,33.190955132246
1743292321927,19:52:01.927,-1,1291.57509157509,5.36304578116425,33.190955132246
1743292321947,19:52:01.947,-1,1490.10989010989,5.36304578116425,33.190955132246
1743292321966,19:52:01.966,-1,1649.81684981685,5.35794054957818,33.190955132246
1743292321986,19:52:01.986,-1,1750.91575091575,5.35794054957818,33.190955132246
1743292322005,19:52:02.005,-1,1805.12820512821,5.35283531799211,33.190955132246
1743292322025,19:52:02.025,-1,1827.10622710623,5.35283531799211,33.190955132246
1743292322044,19:52:02.044,-1,1832.23443223443,5.34773008640604,33.190955132246
1743292322064,19:52:02.064,-1,1826.37362637363,5.34773008640604,33.190955132246
1743292322083,19:52:02.083,-1,1809.52380952381,5.34262485481998,33.190955132246
1743292322103,19:52:02.103,-1,1767.03296703297,5.34262485481998,33.190955132246
1743292322122,19:52:02.122,-1,1701.8315018315,5.33751962323391,33.190955132246
1743292322142,19:52:02.142,-1,1628.57142857143,5.33751962323391,33.190955132246
1743292322161,19:52:02.161,-1,1552.38095238095,5.33751962323391,33.190955132246
1743292322181,19:52:02.181,-1,1481.31868131868,5.33241439164784,33.190955132246
1743292322200,19:52:02.200,-1,1420.51282051282,5.32730916006177,33.190955132246
1743292322220,19:52:02.220,-1,1364.83516483516,5.32730916006177,33.190955132246
1743292322239,19:52:02.239,-1,1326.00732600733,5.32220392847571,33.190955132246
1743292322259,19:52:02.259,-1,1302.5641025641,5.32220392847571,33.190955132246
1743292322278,19:52:02.278,-1,1284.24908424908,5.31709869688964,33.190955132246
1743292322298,19:52:02.298,-1,1262.27106227106,5.31709869688964,33.190955132246
1743292322317,19:52:02.317,-1,1246.88644688645,5.31709869688964,33.190955132246
1743292322337,19:52:02.337,-1,1224.90842490842,5.31199346530357,33.190955132246
1743292322356,19:52:02.356,-1,1194.87179487179,5.31199346530357,33.190955132246
1743292322376,19:52:02.376,-1,1166.30036630037,5.3068882337175,33.190955132246
1743292322395,19:52:02.395,-1,1124.54212454212,5.3068882337175,33.190955132246
1743292322415,19:52:02.415,-1,1085.71428571429,5.30178300213143,33.190955132246
1743292322434,19:52:02.434,-1,1052.01465201465,5.29667777054536,33.190955132246
1743292322454,19:52:02.454,-1,1029.30402930403,5.30178300213143,33.190955132246
1743292322473,19:52:02.473,-1,1008.05860805861,5.29667777054536,33.190955132246
1743292322493,19:52:02.493,-1,1002.9304029304,5.29667777054536,33.190955132246
1743292322512,19:52:02.512,-1,1007.32600732601,5.29667777054536,33.190955132246
1743292322532,19:52:02.532,-1,1002.9304029304,5.2915725389593,33.190955132246
1743292322551,19:52:02.551,-1,994.871794871795,5.2915725389593,33.190955132246
1743292322571,19:52:02.571,-1,980.952380952381,5.2915725389593,33.190955132246
1743292322590,19:52:02.590,-1,986.080586080586,5.28646730737323,33.190955132246
1743292322610,19:52:02.610,-1,989.74358974359,5.28646730737323,33.190955132246
1743292322629,19:52:02.629,-1,992.673992673993,5.28136207578716,33.190955132246
1743292322649,19:52:02.649,-1,989.74358974359,5.28136207578716,33.190955132246
1743292322668,19:52:02.668,-1,976.556776556777,5.27625684420109,33.1959587418241
1743292322688,19:52:02.688,-1,956.043956043956,5.27625684420109,33.1959587418241
1743292322707,19:52:02.707,-1,948.717948717949,5.27625684420109,33.1959587418241
1743292322727,19:52:02.727,-1,946.520146520146,5.27115161261503,33.1959587418241
1743292322746,19:52:02.746,-1,938.461538461538,5.27115161261503,33.1959587418241
1743292322766,19:52:02.766,-1,949.450549450549,5.27115161261503,33.1959587418241
1743292322785,19:52:02.785,-1,1006.59340659341,5.27115161261503,33.1959587418241
1743292322805,19:52:02.805,-1,1112.82051282051,5.26604638102896,33.1959587418241
1743292322824,19:52:02.824,-1,1253.47985347985,5.26604638102896,33.1959587418241
1743292322844,19:52:02.844,-1,1391.20879120879,5.26604638102896,33.1959587418241
1743292322863,19:52:02.863,-1,1485.71428571429,5.26094114944289,33.1959587418241
1743292322883,19:52:02.883,-1,1534.79853479853,5.25583591785682,33.1959587418241
1743292322902,19:52:02.902,-1,1554.57875457875,5.25583591785682,33.1959587418241
1743292322922,19:52:02.922,-1,1563.36996336996,5.25583591785682,33.1959587418241
1743292322941,19:52:02.941,-1,1570.69597069597,5.25073068627075,33.1959587418241
1743292322961,19:52:02.961,-1,1561.17216117216,5.25073068627075,33.1959587418241
1743292322980,19:52:02.980,-1,1540.65934065934,5.25073068627075,33.1959587418241
1743292323000,19:52:03.000,-1,1508.42490842491,5.24562545468469,33.1959587418241
1743292323019,19:52:03.019,-1,1469.59706959707,5.24052022309862,33.1959587418241
1743292323039,19:52:03.039,-1,1419.04761904762,5.24562545468469,33.1959587418241
1743292323058,19:52:03.058,-1,1364.83516483516,5.24052022309862,33.1959587418241
1743292323078,19:52:03.078,-1,1306.95970695971,5.23541499151255,33.1959587418241
1743292323097,19:52:03.097,-1,1267.39926739927,5.23541499151255,33.1959587418241
1743292323117,19:52:03.117,-1,1242.49084249084,5.23541499151255,33.1959587418241
1743292323136,19:52:03.136,-1,1240.29304029304,5.23541499151255,33.1959587418241
1743292323156,19:52:03.156,-1,1237.36263736264,5.23030975992649,33.1959587418241
1743292323175,19:52:03.175,-1,1223.44322344322,5.23030975992649,33.1959587418241
1743292323195,19:52:03.195,-1,1199.2673992674,5.22520452834042,33.1959587418241
1743292323214,19:52:03.214,-1,1166.30036630037,5.22520452834042,33.1959587418241
1743292323234,19:52:03.234,-1,1141.39194139194,5.22520452834042,33.1959587418241
1743292323253,19:52:03.253,-1,1120.87912087912,5.22009929675435,33.1959587418241
1743292323273,19:52:03.273,-1,1119.41391941392,5.22009929675435,33.1959587418241
1743292323292,19:52:03.292,-1,1108.42490842491,5.22009929675435,33.1959587418241
1743292323312,19:52:03.312,-1,1082.78388278388,5.22009929675435,33.1959587418241
1743292323331,19:52:03.331,-1,1068.86446886447,5.21499406516828,33.1959587418241
1743292323351,19:52:03.351,-1,1054.21245421245,5.21499406516828,33.1959587418241
1743292323370,19:52:03.370,-1,1041.02564102564,5.20988883358221,33.1959587418241
1743292323390,19:52:03.390,-1,1032.96703296703,5.20988883358221,33.1959587418241
1743292323409,19:52:03.409,-1,1021.97802197802,5.20988883358221,33.1959587418241
1743292323429,19:52:03.429,-1,994.139194139194,5.20988883358221,33.1959587418241
1743292323448,19:52:03.448,-1,986.813186813187,5.20478360199614,33.1959587418241
1743292323468,19:52:03.468,-1,997.802197802198,5.20478360199614,33.1959587418241
1743292323487,19:52:03.487,-1,1005.86080586081,5.20478360199614,33.1959587418241
1743292323507,19:52:03.507,-1,1013.91941391941,5.20478360199614,33.1959587418241
1743292323526,19:52:03.526,-1,1019.04761904762,5.20478360199614,33.1959587418241
1743292323546,19:52:03.546,-1,1019.78021978022,5.19967837041008,33.1959587418241
1743292323565,19:52:03.565,-1,1019.78021978022,5.19967837041008,33.1959587418241
1743292323585,19:52:03.585,-1,1033.69963369963,5.19967837041008,33.1959587418241
1743292323604,19:52:03.604,-1,1088.64468864469,5.19457313882401,33.1959587418241
1743292323624,19:52:03.624,-1,1154.57875457875,5.19457313882401,33.1959587418241
1743292323643,19:52:03.643,-1,1235.16483516484,5.19457313882401,33.1959587418241
1743292323663,19:52:03.663,-1,1320.87912087912,5.19457313882401,33.1959587418241
1743292323682,19:52:03.682,-1,1370.69597069597,5.19457313882401,33.1959587418241
1743292323702,19:52:03.702,-1,1394.87179487179,5.18946790723794,33.1959587418241
1743292323721,19:52:03.721,-1,1407.32600732601,5.18946790723794,33.1959587418241
1743292323741,19:52:03.741,-1,1409.52380952381,5.18946790723794,33.1959587418241
1743292323760,19:52:03.760,-1,1419.04761904762,5.18436267565187,33.1959587418241
1743292323780,19:52:03.780,-1,1427.83882783883,5.18436267565187,33.1959587418241
1743292323799,19:52:03.799,-1,1420.51282051282,5.18436267565187,33.1959587418241
1743292323819,19:52:03.819,-1,1402.1978021978,5.18436267565187,33.1959587418241
1743292323838,19:52:03.838,-1,1378.75457875458,5.17925744406581,33.1959587418241
1743292323858,19:52:03.858,-1,1339.92673992674,5.17925744406581,33.1959587418241
1743292323878,19:52:03.877,-1,1290.84249084249,5.17925744406581,33.1959587418241
1743292323897,19:52:03.897,-1,1241.02564102564,5.17415221247974,33.1959587418241
1743292323917,19:52:03.916,-1,1220.51282051282,5.17415221247974,33.1959587418241
1743292323936,19:52:03.936,-1,1202.9304029304,5.17415221247974,33.1959587418241
1743292323956,19:52:03.955,-1,1204.3956043956,5.17415221247974,33.1959587418241
1743292323975,19:52:03.975,-1,1208.79120879121,5.17415221247974,33.1959587418241
1743292323995,19:52:03.995,-1,1204.3956043956,5.16904698089367,33.1959587418241
1743292324014,19:52:04.014,-1,1195.6043956044,5.16904698089367,33.1959587418241
1743292324034,19:52:04.034,-1,1186.08058608059,5.16904698089367,33.1959587418241
1743292324053,19:52:04.053,-1,1173.62637362637,5.1639417493076,33.1959587418241
1743292324073,19:52:04.073,-1,1164.83516483516,5.1639417493076,33.1959587418241
1743292324092,19:52:04.092,-1,1143.58974358974,5.1639417493076,33.1959587418241
1743292324112,19:52:04.112,-1,1122.34432234432,5.1639417493076,33.1959587418241
1743292324131,19:52:04.131,-1,1098.1684981685,5.1639417493076,33.1959587418241
1743292324151,19:52:04.151,-1,1082.05128205128,5.1639417493076,33.1959587418241
1743292324170,19:52:04.170,-1,1072.52747252747,5.15883651772153,33.1959587418241
1743292324190,19:52:04.190,-1,1061.53846153846,5.15883651772153,33.1959587418241
1743292324209,19:52:04.209,-1,1059.34065934066,5.15883651772153,33.1959587418241
1743292324229,19:52:04.229,-1,1068.13186813187,5.15883651772153,33.1959587418241
1743292324248,19:52:04.248,-1,1082.78388278388,5.15883651772153,33.1959587418241
1743292324268,19:52:04.268,-1,1082.05128205128,5.15373128613547,33.1959587418241
1743292324287,19:52:04.287,-1,1068.13186813187,5.15373128613547,33.1959587418241
1743292324307,19:52:04.307,-1,1057.87545787546,5.15373128613547,33.1959587418241
1743292324326,19:52:04.326,-1,1041.75824175824,5.1486260545494,33.1959587418241
1743292324346,19:52:04.346,-1,1032.96703296703,5.1486260545494,33.1959587418241
1743292324365,19:52:04.365,-1,1021.97802197802,5.1486260545494,33.1959587418241
1743292324385,19:52:04.385,-1,1025.64102564103,5.1486260545494,33.1959587418241
1743292324404,19:52:04.404,-1,1067.39926739927,5.1486260545494,33.1959587418241
1743292324424,19:52:04.424,-1,1134.06593406593,5.1486260545494,33.1959587418241
1743292324443,19:52:04.443,-1,1202.1978021978,5.1486260545494,33.1959587418241
1743292324463,19:52:04.463,-1,1276.92307692308,5.1486260545494,33.1959587418241
1743292324482,19:52:04.482,-1,1333.33333333333,5.14352082296333,33.1959587418241
1743292324502,19:52:04.502,-1,1374.35897435897,5.14352082296333,33.1959587418241
1743292324521,19:52:04.521,-1,1395.6043956044,5.1486260545494,33.1959587418241
1743292324541,19:52:04.541,-1,1404.3956043956,5.14352082296333,33.1959587418241
1743292324560,19:52:04.560,-1,1419.78021978022,5.14352082296333,33.1959587418241
1743292324580,19:52:04.580,-1,1434.43223443223,5.14352082296333,33.1959587418241
1743292324599,19:52:04.599,-1,1426.37362637363,5.14352082296333,33.1959587418241
1743292324619,19:52:04.619,-1,1397.8021978022,5.13841559137726,33.1959587418241
1743292324638,19:52:04.638,-1,1380.95238095238,5.13841559137726,33.1959587418241
1743292324658,19:52:04.658,-1,1353.11355311355,5.13841559137726,33.2059659435181
1743292324677,19:52:04.677,-1,1318.68131868132,5.13841559137726,33.2059659435181
1743292324697,19:52:04.697,-1,1285.71428571429,5.13841559137726,33.2059659435181
1743292324716,19:52:04.716,-1,1253.47985347985,5.13841559137726,33.2059659435181
1743292324736,19:52:04.736,-1,1221.97802197802,5.13331035979119,33.2059659435181
1743292324755,19:52:04.755,-1,1220.51282051282,5.13331035979119,33.2059659435181
1743292324775,19:52:04.775,-1,1228.57142857143,5.13331035979119,33.2059659435181
1743292324794,19:52:04.794,-1,1228.57142857143,5.13331035979119,33.2059659435181
1743292324814,19:52:04.814,-1,1218.31501831502,5.12820512820513,33.2059659435181
1743292324833,19:52:04.833,-1,1205.86080586081,5.12820512820513,33.2059659435181
1743292324853,19:52:04.853,-1,1185.34798534799,5.12820512820513,33.2059659435181
1743292324872,19:52:04.872,-1,1162.63736263736,5.12820512820513,33.2059659435181
1743292324892,19:52:04.892,-1,1156.04395604396,5.12820512820513,33.2059659435181
1743292324911,19:52:04.911,-1,1142.85714285714,5.12309989661906,33.2059659435181
1743292324931,19:52:04.931,-1,1126.73992673993,5.12309989661906,33.2059659435181
1743292324950,19:52:04.950,-1,1121.61172161172,5.12309989661906,33.2059659435181
1743292324970,19:52:04.970,-1,1123.07692307692,5.12309989661906,33.2059659435181
1743292324989,19:52:04.989,-1,1128.93772893773,5.12309989661906,33.2059659435181
1743292325009,19:52:05.009,-1,1125.27472527473,5.11799466503299,33.2059659435181
1743292325028,19:52:05.028,-1,1127.47252747253,5.12309989661906,33.2059659435181
1743292325048,19:52:05.048,-1,1134.79853479853,5.11799466503299,33.2059659435181
1743292325067,19:52:05.067,-1,1144.32234432234,5.11799466503299,33.2059659435181
1743292325087,19:52:05.087,-1,1129.67032967033,5.11799466503299,33.2059659435181
1743292325106,19:52:05.106,-1,1128.93772893773,5.11799466503299,33.2059659435181
1743292325126,19:52:05.126,-1,1128.93772893773,5.11288943344692,33.2059659435181
1743292325145,19:52:05.145,-1,1128.20512820513,5.11288943344692,33.2059659435181
1743292325165,19:52:05.165,-1,1120.87912087912,5.11799466503299,33.2059659435181
1743292325184,19:52:05.184,-1,1112.82051282051,5.11288943344692,33.2059659435181
1743292325204,19:52:05.204,-1,1099.6336996337,5.11288943344692,33.2059659435181
1743292325223,19:52:05.223,-1,1087.91208791209,5.11288943344692,33.2059659435181
1743292325243,19:52:05.243,-1,1098.9010989011,5.11288943344692,33.2059659435181
1743292325262,19:52:05.262,-1,1131.86813186813,5.10778420186086,33.2059659435181
1743292325282,19:52:05.282,-1,1183.88278388278,5.11288943344692,33.2059659435181
1743292325301,19:52:05.301,-1,1241.75824175824,5.11288943344692,33.2059659435181
1743292325321,19:52:05.321,-1,1305.49450549451,5.11288943344692,33.2059659435181
1743292325340,19:52:05.340,-1,1358.97435897436,5.10778420186086,33.2059659435181
1743292325360,19:52:05.360,-1,1383.15018315018,5.10778420186086,33.2059659435181
1743292325379,19:52:05.379,-1,1402.9304029304,5.10778420186086,33.2059659435181
1743292325399,19:52:05.399,-1,1416.11721611722,5.10778420186086,33.2059659435181
1743292325418,19:52:05.418,-1,1424.17582417582,5.10778420186086,33.2059659435181
1743292325438,19:52:05.438,-1,1418.31501831502,5.10267897027479,33.2059659435181
1743292325457,19:52:05.457,-1,1422.71062271062,5.10778420186086,33.2059659435181
1743292325477,19:52:05.477,-1,1424.90842490842,5.10267897027479,33.2059659435181
1743292325496,19:52:05.496,-1,1417.58241758242,5.10267897027479,33.2059659435181
1743292325516,19:52:05.516,-1,1398.5347985348,5.10267897027479,33.2059659435181
1743292325535,19:52:05.535,-1,1370.69597069597,5.10267897027479,33.2059659435181
1743292325555,19:52:05.555,-1,1341.39194139194,5.09757373868872,33.2059659435181
1743292325574,19:52:05.574,-1,1316.48351648352,5.09757373868872,33.2059659435181
1743292325594,19:52:05.594,-1,1301.8315018315,5.09757373868872,33.2059659435181
1743292325613,19:52:05.613,-1,1286.44688644689,5.09757373868872,33.2059659435181
1743292325633,19:52:05.633,-1,1268.13186813187,5.09757373868872,33.2059659435181
1743292325652,19:52:05.652,-1,1260.80586080586,5.09246850710265,33.2109695356339
1743292325672,19:52:05.672,-1,1267.39926739927,5.09246850710265,33.2109695356339
1743292325691,19:52:05.691,-1,1275.45787545788,5.09246850710265,33.2109695356339
1743292325711,19:52:05.711,-1,1265.93406593407,5.09246850710265,33.2109695356339
1743292325730,19:52:05.730,-1,1252.01465201465,5.08736327551658,33.2109695356339
1743292325750,19:52:05.750,-1,1252.74725274725,5.09246850710265,33.2109695356339
1743292325769,19:52:05.769,-1,1248.35164835165,5.09246850710265,33.2109695356339
1743292325789,19:52:05.789,-1,1235.16483516484,5.09246850710265,33.2109695356339
1743292325808,19:52:05.808,-1,1219.04761904762,5.08736327551658,33.2109695356339
1743292325828,19:52:05.828,-1,1214.65201465201,5.08736327551658,33.2109695356339
1743292325847,19:52:05.847,-1,1202.1978021978,5.08736327551658,33.2109695356339
1743292325867,19:52:05.867,-1,1185.34798534799,5.08736327551658,33.2109695356339
1743292325886,19:52:05.886,-1,1173.62637362637,5.08736327551658,33.2109695356339
1743292325906,19:52:05.906,-1,1168.49816849817,5.08225804393052,33.2109695356339
1743292325925,19:52:05.925,-1,1152.38095238095,5.08225804393052,33.2109695356339
1743292325945,19:52:05.945,-1,1138.46153846154,5.08225804393052,33.2109695356339
1743292325964,19:52:05.964,-1,1128.93772893773,5.08225804393052,33.2109695356339
1743292325984,19:52:05.984,-1,1128.20512820513,5.08225804393052,33.2109695356339
1743292326003,19:52:06.003,-1,1123.80952380952,5.08225804393052,33.2109695356339
1743292326023,19:52:06.023,-1,1123.07692307692,5.08225804393052,33.2109695356339
1743292326042,19:52:06.042,-1,1129.67032967033,5.08225804393052,33.2109695356339
1743292326062,19:52:06.062,-1,1127.47252747253,5.07715281234445,33.2109695356339
1743292326081,19:52:06.081,-1,1139.92673992674,5.07715281234445,33.2109695356339
1743292326101,19:52:06.101,-1,1152.38095238095,5.07715281234445,33.2109695356339
1743292326120,19:52:06.120,-1,1164.10256410256,5.07715281234445,33.2109695356339
1743292326140,19:52:06.140,-1,1173.62637362637,5.07715281234445,33.2109695356339
1743292326159,19:52:06.159,-1,1178.75457875458,5.07715281234445,33.2109695356339
1743292326179,19:52:06.179,-1,1213.91941391941,5.07204758075838,33.2109695356339
1743292326198,19:52:06.198,-1,1258.60805860806,5.07204758075838,33.2109695356339
1743292326218,19:52:06.218,-1,1319.41391941392,5.07204758075838,33.2109695356339
1743292326237,19:52:06.237,-1,1376.55677655678,5.07204758075838,33.2109695356339
1743292326257,19:52:06.257,-1,1419.78021978022,5.07204758075838,33.2109695356339
1743292326276,19:52:06.276,-1,1457.14285714286,5.07204758075838,33.2109695356339
1743292326296,19:52:06.296,-1,1484.24908424908,5.06694234917231,33.2109695356339
1743292326315,19:52:06.315,-1,1515.01831501831,5.06694234917231,33.2109695356339
1743292326335,19:52:06.335,-1,1536.99633699634,5.06694234917231,33.2109695356339
1743292326354,19:52:06.354,-1,1545.78754578755,5.06694234917231,33.2109695356339
1743292326374,19:52:06.374,-1,1534.06593406593,5.06694234917231,33.2109695356339
1743292326393,19:52:06.393,-1,1524.54212454212,5.06183711758625,33.2109695356339
1743292326413,19:52:06.413,-1,1522.34432234432,5.06183711758625,33.2109695356339
1743292326432,19:52:06.432,-1,1519.41391941392,5.06183711758625,33.2109695356339
1743292326452,19:52:06.452,-1,1519.41391941392,5.05673188600018,33.2109695356339
1743292326471,19:52:06.471,-1,1522.34432234432,5.05673188600018,33.2109695356339
1743292326491,19:52:06.491,-1,1515.75091575092,5.05673188600018,33.2109695356339
1743292326510,19:52:06.510,-1,1491.57509157509,5.05673188600018,33.2109695356339
1743292326530,19:52:06.530,-1,1470.32967032967,5.05673188600018,33.2109695356339
1743292326549,19:52:06.549,-1,1457.87545787546,5.05162665441411,33.2109695356339
1743292326569,19:52:06.569,-1,1454.21245421245,5.05162665441411,33.2109695356339
1743292326588,19:52:06.588,-1,1451.28205128205,5.05162665441411,33.2109695356339
1743292326608,19:52:06.608,-1,1443.22344322344,5.05162665441411,33.2109695356339
1743292326627,19:52:06.627,-1,1427.10622710623,5.05162665441411,33.2109695356339
1743292326647,19:52:06.647,-1,1405.86080586081,5.05162665441411,33.215973121929
1743292326666,19:52:06.666,-1,1393.40659340659,5.05162665441411,33.215973121929
1743292326686,19:52:06.686,-1,1386.08058608059,5.05162665441411,33.215973121929
1743292326705,19:52:06.705,-1,1376.55677655678,5.04652142282804,33.215973121929
1743292326725,19:52:06.725,-1,1354.57875457875,5.04652142282804,33.215973121929
1743292326744,19:52:06.744,-1,1339.19413919414,5.04652142282804,33.215973121929
1743292326764,19:52:06.764,-1,1321.61172161172,5.04652142282804,33.215973121929
1743292326783,19:52:06.783,-1,1300.3663003663,5.04652142282804,33.215973121929
1743292326803,19:52:06.803,-1,1284.24908424908,5.04652142282804,33.215973121929
1743292326822,19:52:06.822,-1,1275.45787545788,5.04141619124197,33.215973121929
1743292326842,19:52:06.842,-1,1279.12087912088,5.04141619124197,33.215973121929
1743292326861,19:52:06.861,-1,1289.37728937729,5.04141619124197,33.215973121929
1743292326881,19:52:06.881,-1,1289.37728937729,5.04141619124197,33.215973121929
1743292326900,19:52:06.900,-1,1279.85347985348,5.04141619124197,33.215973121929
1743292326920,19:52:06.920,-1,1271.79487179487,5.04141619124197,33.215973121929
1743292326939,19:52:06.939,-1,1265.93406593407,5.04141619124197,33.215973121929
1743292326959,19:52:06.959,-1,1254.21245421245,5.03631095965591,33.215973121929
1743292326978,19:52:06.978,-1,1238.82783882784,5.04141619124197,33.215973121929
1743292326998,19:52:06.998,-1,1228.57142857143,5.03631095965591,33.215973121929
1743292327017,19:52:07.017,-1,1230.76923076923,5.03631095965591,33.215973121929
1743292327037,19:52:07.037,-1,1239.56043956044,5.03631095965591,33.215973121929
1743292327056,19:52:07.056,-1,1281.31868131868,5.04141619124197,33.215973121929
1743292327076,19:52:07.076,-1,1346.52014652015,5.03631095965591,33.215973121929
1743292327095,19:52:07.095,-1,1424.90842490842,5.03631095965591,33.215973121929
1743292327115,19:52:07.115,-1,1498.1684981685,5.03631095965591,33.215973121929
1743292327134,19:52:07.134,-1,1573.62637362637,5.03120572806984,33.215973121929
1743292327154,19:52:07.154,-1,1638.09523809524,5.03120572806984,33.215973121929
1743292327173,19:52:07.173,-1,1682.05128205128,5.03120572806984,33.215973121929
1743292327193,19:52:07.193,-1,1697.4358974359,5.03120572806984,33.215973121929
1743292327212,19:52:07.212,-1,1707.69230769231,5.03120572806984,33.215973121929
1743292327232,19:52:07.232,-1,1713.55311355311,5.03120572806984,33.215973121929
1743292327251,19:52:07.251,-1,1712.82051282051,5.02610049648377,33.215973121929
1743292327271,19:52:07.271,-1,1701.8315018315,5.02610049648377,33.215973121929
1743292327290,19:52:07.290,-1,1680.58608058608,5.02610049648377,33.215973121929
1743292327310,19:52:07.310,-1,1654.21245421245,5.02610049648377,33.215973121929
1743292327329,19:52:07.329,-1,1616.11721611722,5.02610049648377,33.215973121929
1743292327349,19:52:07.349,-1,1578.02197802198,5.02610049648377,33.215973121929
1743292327368,19:52:07.368,-1,1556.77655677656,5.0209952648977,33.215973121929
1743292327388,19:52:07.388,-1,1543.58974358974,5.0209952648977,33.215973121929
1743292327407,19:52:07.407,-1,1520.14652014652,5.0209952648977,33.215973121929
1743292327427,19:52:07.427,-1,1504.7619047619,5.0209952648977,33.215973121929
1743292327446,19:52:07.446,-1,1492.30769230769,5.0209952648977,33.215973121929
1743292327466,19:52:07.466,-1,1477.65567765568,5.0209952648977,33.215973121929
1743292327485,19:52:07.485,-1,1464.46886446886,5.0209952648977,33.215973121929
1743292327505,19:52:07.505,-1,1466.66666666667,5.0209952648977,33.215973121929
1743292327524,19:52:07.524,-1,1457.14285714286,5.0209952648977,33.215973121929
1743292327544,19:52:07.544,-1,1440.29304029304,5.0209952648977,33.215973121929
1743292327563,19:52:07.563,-1,1411.72161172161,5.01589003331164,33.215973121929
1743292327583,19:52:07.583,-1,1391.94139194139,5.0209952648977,33.215973121929
1743292327602,19:52:07.602,-1,1366.30036630037,5.01589003331164,33.215973121929
1743292327622,19:52:07.622,-1,1342.85714285714,5.01589003331164,33.215973121929
1743292327641,19:52:07.641,-1,1311.35531135531,5.01589003331164,33.215973121929
1743292327661,19:52:07.661,-1,1279.85347985348,5.01589003331164,33.215973121929
1743292327680,19:52:07.680,-1,1271.06227106227,5.01589003331164,33.215973121929
1743292327700,19:52:07.700,-1,1274.72527472527,5.01589003331164,33.215973121929
1743292327719,19:52:07.719,-1,1268.86446886447,5.01589003331164,33.215973121929
1743292327739,19:52:07.739,-1,1246.88644688645,5.01589003331164,33.215973121929
1743292327758,19:52:07.758,-1,1226.37362637363,5.01589003331164,33.215973121929
1743292327778,19:52:07.778,-1,1214.65201465201,5.01589003331164,33.215973121929
1743292327797,19:52:07.797,-1,1214.65201465201,5.01589003331164,33.215973121929
1743292327817,19:52:07.817,-1,1227.10622710623,5.01078480172557,33.215973121929
1743292327836,19:52:07.836,-1,1233.69963369963,5.01078480172557,33.215973121929
1743292327856,19:52:07.856,-1,1254.21245421245,5.01078480172557,33.215973121929
1743292327875,19:52:07.875,-1,1312.82051282051,5.01078480172557,33.215973121929
1743292327895,19:52:07.895,-1,1414.65201465201,5.01078480172557,33.215973121929
1743292327914,19:52:07.914,-1,1528.20512820513,5.01078480172557,33.215973121929
1743292327934,19:52:07.934,-1,1635.16483516484,5.01078480172557,33.215973121929
1743292327953,19:52:07.953,-1,1725.27472527473,5.01078480172557,33.215973121929
1743292327973,19:52:07.973,-1,1789.74358974359,5.0056795701395,33.215973121929
1743292327992,19:52:07.992,-1,1821.24542124542,5.0056795701395,33.215973121929
1743292328012,19:52:08.012,-1,1836.63003663004,5.0056795701395,33.215973121929
1743292328031,19:52:08.031,-1,1842.49084249084,5.0056795701395,33.215973121929
1743292328051,19:52:08.051,-1,1827.83882783883,5.0056795701395,33.215973121929
1743292328070,19:52:08.070,-1,1802.9304029304,5.00057433855343,33.215973121929
1743292328090,19:52:08.090,-1,1762.63736263736,5.0056795701395,33.215973121929
1743292328109,19:52:08.109,-1,1721.61172161172,5.0056795701395,33.215973121929
1743292328129,19:52:08.129,-1,1675.45787545788,5.00057433855343,33.215973121929
1743292328148,19:52:08.148,-1,1616.84981684982,5.00057433855343,33.215973121929
1743292328168,19:52:08.168,-1,1566.30036630037,5.00057433855343,33.215973121929
1743292328187,19:52:08.187,-1,1547.98534798535,5.00057433855343,33.215973121929
1743292328207,19:52:08.207,-1,1547.25274725275,5.00057433855343,33.215973121929
1743292328226,19:52:08.226,-1,1545.05494505494,4.99546910696736,33.215973121929
1743292328246,19:52:08.246,-1,1547.25274725275,4.99546910696736,33.215973121929
1743292328265,19:52:08.265,-1,1545.78754578755,5.00057433855343,33.215973121929
1743292328285,19:52:08.285,-1,1528.20512820513,4.99546910696736,33.215973121929
1743292328304,19:52:08.304,-1,1504.7619047619,4.99546910696736,33.215973121929
1743292328324,19:52:08.324,-1,1473.99267399267,4.99546910696736,33.215973121929
1743292328343,19:52:08.343,-1,1434.43223443223,4.99546910696736,33.215973121929
1743292328363,19:52:08.363,-1,1392.67399267399,4.99546910696736,33.215973121929
1743292328382,19:52:08.382,-1,1383.15018315018,4.99546910696736,33.215973121929
1743292328402,19:52:08.402,-1,1384.61538461538,4.99546910696736,33.215973121929
1743292328421,19:52:08.421,-1,1375.09157509157,4.9903638753813,33.215973121929
1743292328441,19:52:08.441,-1,1353.11355311355,4.9903638753813,33.215973121929
1743292328460,19:52:08.460,-1,1339.92673992674,4.9903638753813,33.215973121929
1743292328480,19:52:08.480,-1,1322.34432234432,4.9903638753813,33.215973121929
1743292328499,19:52:08.499,-1,1309.15750915751,4.9903638753813,33.215973121929
1743292328519,19:52:08.519,-1,1291.57509157509,4.9903638753813,33.215973121929
1743292328538,19:52:08.538,-1,1279.85347985348,4.9903638753813,33.215973121929
1743292328558,19:52:08.558,-1,1279.85347985348,4.9903638753813,33.215973121929
1743292328577,19:52:08.577,-1,1265.20146520147,4.9903638753813,33.215973121929
1743292328597,19:52:08.597,-1,1243.22344322344,4.9903638753813,33.215973121929
1743292328616,19:52:08.616,-1,1226.37362637363,4.9903638753813,33.215973121929
1743292328636,19:52:08.636,-1,1217.58241758242,4.9903638753813,33.215973121929
1743292328655,19:52:08.655,-1,1221.97802197802,4.9903638753813,33.215973121929
1743292328675,19:52:08.675,-1,1216.11721611722,4.9903638753813,33.215973121929
1743292328694,19:52:08.694,-1,1229.30402930403,4.9903638753813,33.215973121929
1743292328714,19:52:08.714,-1,1289.37728937729,4.9903638753813,33.215973121929
1743292328733,19:52:08.733,-1,1401.4652014652,4.9903638753813,33.215973121929
1743292328753,19:52:08.753,-1,1529.67032967033,4.9903638753813,33.215973121929
1743292328772,19:52:08.772,-1,1651.28205128205,4.9903638753813,33.215973121929
1743292328792,19:52:08.792,-1,1752.38095238095,4.9903638753813,33.215973121929
1743292328811,19:52:08.811,-1,1839.56043956044,4.9903638753813,33.215973121929
1743292328831,19:52:08.831,-1,1895.9706959707,4.9903638753813,33.215973121929
1743292328850,19:52:08.850,-1,1915.01831501831,4.98525864379523,33.215973121929
1743292328870,19:52:08.870,-1,1911.35531135531,4.98525864379523,33.215973121929
1743292328889,19:52:08.889,-1,1906.95970695971,4.98525864379523,33.215973121929
1743292328909,19:52:08.909,-1,1890.84249084249,4.98525864379523,33.215973121929
1743292328928,19:52:08.928,-1,1854.21245421245,4.98525864379523,33.215973121929
1743292328948,19:52:08.948,-1,1813.18681318681,4.98525864379523,33.215973121929
1743292328967,19:52:08.967,-1,1764.10256410256,4.98525864379523,33.215973121929
1743292328987,19:52:08.987,-1,1706.22710622711,4.98015341220916,33.215973121929
1743292329006,19:52:09.006,-1,1647.61904761905,4.98525864379523,33.215973121929
1743292329026,19:52:09.026,-1,1602.1978021978,4.98525864379523,33.215973121929
1743292329045,19:52:09.045,-1,1578.02197802198,4.98525864379523,33.215973121929
1743292329065,19:52:09.065,-1,1539.92673992674,4.98015341220916,33.215973121929
1743292329084,19:52:09.084,-1,1508.42490842491,4.98525864379523,33.215973121929
1743292329104,19:52:09.104,-1,1479.12087912088,4.98015341220916,33.215973121929
1743292329123,19:52:09.123,-1,1452.74725274725,4.98015341220916,33.215973121929
1743292329143,19:52:09.143,-1,1433.69963369963,4.98015341220916,33.215973121929
1743292329162,19:52:09.162,-1,1405.12820512821,4.98015341220916,33.215973121929
1743292329182,19:52:09.182,-1,1374.35897435897,4.98525864379523,33.215973121929
1743292329201,19:52:09.201,-1,1355.31135531136,4.98015341220916,33.215973121929
1743292329221,19:52:09.221,-1,1325.27472527473,4.98015341220916,33.215973121929
1743292329240,19:52:09.240,-1,1284.98168498168,4.98015341220916,33.215973121929
1743292329260,19:52:09.260,-1,1271.06227106227,4.98015341220916,33.215973121929
1743292329279,19:52:09.279,-1,1264.46886446886,4.98525864379523,33.215973121929
1743292329299,19:52:09.299,-1,1248.35164835165,4.98525864379523,33.215973121929
1743292329318,19:52:09.318,-1,1221.24542124542,4.98525864379523,33.215973121929
1743292329338,19:52:09.338,-1,1210.25641025641,4.9903638753813,33.215973121929
1743292329357,19:52:09.357,-1,1206.59340659341,4.99546910696736,33.215973121929
1743292329377,19:52:09.377,-1,1194.13919413919,5.00057433855343,33.215973121929
1743292329396,19:52:09.396,-1,1195.6043956044,5.00057433855343,33.215973121929
1743292329416,19:52:09.416,-1,1190.47619047619,5.0056795701395,33.215973121929
1743292329435,19:52:09.435,-1,1185.34798534799,5.01078480172557,33.215973121929
1743292329455,19:52:09.455,-1,1176.55677655678,5.01078480172557,33.215973121929
1743292329474,19:52:09.474,-1,1166.30036630037,5.01589003331164,33.215973121929
1743292329494,19:52:09.494,-1,1150.91575091575,5.0209952648977,33.215973121929
1743292329513,19:52:09.513,-1,1142.85714285714,5.0209952648977,33.215973121929
1743292329533,19:52:09.533,-1,1132.60073260073,5.0209952648977,33.215973121929
1743292329552,19:52:09.552,-1,1117.94871794872,5.0209952648977,33.215973121929
1743292329572,19:52:09.572,-1,1104.7619047619,5.0209952648977,33.215973121929
1743292329591,19:52:09.591,-1,1107.69230769231,5.0209952648977,33.215973121929
1743292329611,19:52:09.611,-1,1104.0293040293,5.0209952648977,33.215973121929
1743292329630,19:52:09.630,-1,1115.01831501831,5.0209952648977,33.2259802770568
1743292329650,19:52:09.650,-1,1172.89377289377,5.01589003331164,33.2259802770568
1743292329669,19:52:09.669,-1,1279.85347985348,5.0209952648977,33.2259802770568
1743292329689,19:52:09.689,-1,1393.40659340659,5.01589003331164,33.2259802770568
1743292329708,19:52:09.708,-1,1524.54212454212,5.01589003331164,33.2259802770568
1743292329728,19:52:09.728,-1,1635.89743589744,5.01589003331164,33.2259802770568
1743292329747,19:52:09.747,-1,1703.2967032967,5.01589003331164,33.2259802770568
1743292329767,19:52:09.767,-1,1735.53113553114,5.01589003331164,33.2259802770568
1743292329786,19:52:09.786,-1,1755.31135531136,5.01589003331164,33.2259802770568
1743292329806,19:52:09.806,-1,1750.18315018315,5.01589003331164,33.2259802770568
1743292329825,19:52:09.825,-1,1728.20512820513,5.01078480172557,33.2259802770568
1743292329845,19:52:09.845,-1,1701.8315018315,5.01078480172557,33.2259802770568
1743292329864,19:52:09.864,-1,1660.07326007326,5.01078480172557,33.2259802770568
1743292329884,19:52:09.884,-1,1613.18681318681,5.01078480172557,33.2259802770568
1743292329903,19:52:09.903,-1,1570.69597069597,5.0056795701395,33.2259802770568
1743292329923,19:52:09.923,-1,1518.68131868132,5.0056795701395,33.2259802770568
1743292329942,19:52:09.942,-1,1465.93406593407,5.01078480172557,33.2259802770568
1743292329962,19:52:09.962,-1,1418.31501831502,5.0056795701395,33.2259802770568
1743292329981,19:52:09.981,-1,1370.69597069597,5.0056795701395,33.2259802770568
1743292330001,19:52:10.001,-1,1342.85714285714,5.0056795701395,33.2259802770568
1743292330020,19:52:10.020,-1,1349.45054945055,5.0056795701395,33.2259802770568
1743292330040,19:52:10.040,-1,1361.17216117216,5.0056795701395,33.2259802770568
1743292330059,19:52:10.059,-1,1348.71794871795,5.01078480172557,33.2259802770568
1743292330079,19:52:10.079,-1,1314.28571428571,5.0056795701395,33.2259802770568
1743292330098,19:52:10.098,-1,1284.24908424908,5.0056795701395,33.2259802770568
1743292330118,19:52:10.118,-1,1271.79487179487,5.0056795701395,33.2259802770568
1743292330137,19:52:10.137,-1,1257.87545787546,5.0056795701395,33.2259802770568
1743292330157,19:52:10.157,-1,1244.68864468864,5.0056795701395,33.2259802770568
1743292330176,19:52:10.176,-1,1227.83882783883,5.0056795701395,33.2259802770568
1743292330196,19:52:10.196,-1,1197.0695970696,5.0056795701395,33.2259802770568
