RawTimestamp,LocalTime,HR_Direct,HR_Buffered,PPG,GSR,Temperature
1743370424502,17:33:44.502,-1,-1,0,6.57809089864839,26.4608428180218
1743370424522,17:33:44.522,-1,-1,0,6.57809089864839,26.4608428180218
1743370424541,17:33:44.541,-1,-1,0,2.35088294789787,26.4608428180218
1743370424561,17:33:44.561,-1,-1,0,2.35088294789787,26.4608428180218
1743370424580,17:33:44.580,-1,-1,0,2.35088294789787,26.4608428180218
1743370424600,17:33:44.600,-1,-1,0,2.35088294789787,26.4608428180218
1743370424619,17:33:44.619,-1,-1,0,2.35088294789787,26.4608428180218
1743370424639,17:33:44.639,-1,-1,0,2.32032775586783,26.4608428180218
1743370424658,17:33:44.658,-1,-1,0,2.32032775586783,26.4608428180218
1743370424678,17:33:44.678,-1,-1,0,2.32032775586783,26.4608428180218
1743370424697,17:33:44.697,-1,-1,0,2.32032775586783,26.4608428180218
1743370424717,17:33:44.717,-1,-1,0,2.32032775586783,26.4608428180218
1743370424736,17:33:44.736,-1,-1,0,2.31282051282051,26.4608428180218
1743370424756,17:33:44.756,-1,-1,0,2.31135531135531,26.4608428180218
1743370424775,17:33:44.775,-1,-1,0,2.30989010989011,26.4608428180218
1743370424795,17:33:44.795,-1,-1,0,2.30842490842491,26.4608428180218
1743370424814,17:33:44.814,-1,-1,0,2.30695970695971,26.4608428180218
1743370424834,17:33:44.834,-1,-1,0,2.30549450549451,26.4608428180218
1743370424853,17:33:44.853,-1,-1,0,2.3040293040293,26.4608428180218
1743370424873,17:33:44.873,-1,-1,0,2.3025641025641,26.4608428180218
1743370424892,17:33:44.892,-1,-1,0,2.3010989010989,26.4608428180218
1743370424912,17:33:44.912,-1,-1,0,2.2996336996337,26.4608428180218
1743370424931,17:33:44.931,-1,-1,0,2.2981684981685,26.4608428180218
1743370424951,17:33:44.951,-1,-1,0,2.2967032967033,26.4608428180218
1743370424970,17:33:44.970,-1,-1,0,2.29377289377289,26.4608428180218
1743370424990,17:33:44.990,-1,-1,0,2.29377289377289,26.4608428180218
1743370425009,17:33:45.009,-1,-1,0,2.29084249084249,26.4608428180218
1743370425029,17:33:45.029,-1,-1,0,2.28937728937729,26.4608428180218
1743370425048,17:33:45.048,-1,-1,0,2.28791208791209,26.4608428180218
1743370425068,17:33:45.068,-1,-1,0,2.28644688644689,26.4608428180218
1743370425087,17:33:45.087,-1,-1,0,2.28498168498168,26.4608428180218
1743370425107,17:33:45.107,-1,-1,0,2.28351648351648,26.4608428180218
1743370425126,17:33:45.126,-1,-1,0,2.28205128205128,26.4608428180218
1743370425146,17:33:45.146,-1,-1,0,2.27912087912088,26.4608428180218
1743370425165,17:33:45.165,-1,-1,0,2.27912087912088,26.4608428180218
1743370425185,17:33:45.185,-1,-1,0,2.27765567765568,26.4608428180218
1743370425204,17:33:45.204,-1,-1,0,2.27472527472527,26.4608428180218
1743370425224,17:33:45.224,-1,-1,0,2.27326007326007,26.4608428180218
1743370425243,17:33:45.243,-1,-1,0,2.27032967032967,26.4608428180218
1743370425263,17:33:45.263,-1,-1,0,2.26886446886447,26.4608428180218
1743370425282,17:33:45.282,-1,-1,0,2.26739926739927,26.4608428180218
1743370425302,17:33:45.302,-1,-1,0,2.26446886446886,26.4608428180218
1743370425321,17:33:45.321,-1,-1,0,2.26153846153846,26.4608428180218
1743370425341,17:33:45.341,-1,-1,0,2.26007326007326,26.4608428180218
1743370425360,17:33:45.360,-1,-1,0,2.25714285714286,26.4608428180218
1743370425380,17:33:45.380,-1,-1,0,2.25567765567766,26.4608428180218
1743370425399,17:33:45.399,-1,-1,0,2.25274725274725,26.4608428180218
1743370425419,17:33:45.419,-1,-1,0,2.24981684981685,33.3610745924525
1743370425438,17:33:45.438,-1,-1,0,2.24688644688645,33.3610745924525
1743370425458,17:33:45.458,-1,-1,0,2.24542124542124,33.3610745924525
1743370425477,17:33:45.477,-1,-1,0,2.24249084249084,33.3610745924525
1743370425497,17:33:45.497,-1,-1,0,2.24102564102564,33.3610745924525
1743370425516,17:33:45.516,-1,-1,0,2.23809523809524,33.3610745924525
1743370425536,17:33:45.536,-1,-1,0,2.23516483516484,33.3610745924525
1743370425555,17:33:45.555,-1,-1,0,2.23369963369963,33.3610745924525
1743370425575,17:33:45.575,-1,-1,0,2.23076923076923,33.3610745924525
1743370425594,17:33:45.594,-1,-1,0,2.22930402930403,33.3610745924525
1743370425614,17:33:45.614,-1,-1,0,2.22783882783883,33.3610745924525
1743370425633,17:33:45.633,-1,-1,0,2.22637362637363,33.3610745924525
1743370425653,17:33:45.653,-1,-1,0,2.22344322344322,33.3610745924525
1743370425672,17:33:45.672,-1,-1,0,2.22197802197802,33.3610745924525
1743370425692,17:33:45.692,-1,-1,0,2.22051282051282,33.3610745924525
1743370425711,17:33:45.711,-1,-1,0,2.21758241758242,33.3610745924525
1743370425731,17:33:45.731,-1,-1,0,2.21611721611722,33.3610745924525
1743370425750,17:33:45.750,-1,-1,0,2.21465201465201,33.3610745924525
1743370425770,17:33:45.770,-1,-1,0,2.21318681318681,33.3610745924525
1743370425789,17:33:45.789,-1,-1,0,2.21025641025641,33.3610745924525
1743370425809,17:33:45.809,-1,-1,0,2.20879120879121,33.3610745924525
1743370425828,17:33:45.828,-1,-1,0,2.20586080586081,33.3610745924525
1743370425848,17:33:45.848,-1,-1,0,2.2043956043956,33.3610745924525
1743370425867,17:33:45.867,-1,-1,0,2.2029304029304,33.3610745924525
1743370425887,17:33:45.887,-1,-1,0,2.2,33.3610745924525
1743370425906,17:33:45.906,-1,-1,0,2.1985347985348,33.3610745924525
1743370425926,17:33:45.926,-1,-1,0,2.1970695970696,33.3610745924525
1743370425945,17:33:45.945,-1,-1,0,2.19560439560439,33.3610745924525
1743370425965,17:33:45.965,-1,-1,0,2.19413919413919,33.3610745924525
1743370425984,17:33:45.984,-1,-1,0,2.19120879120879,33.3610745924525
1743370426004,17:33:46.004,-1,-1,482.051282051282,2.18827838827839,33.3610745924525
1743370426023,17:33:46.023,-1,-1,1052.01465201465,2.18681318681319,33.3610745924525
1743370426043,17:33:46.043,-1,-1,1464.46886446886,2.18534798534799,33.3610745924525
1743370426062,17:33:46.062,-1,-1,1689.37728937729,2.18388278388278,33.3610745924525
1743370426082,17:33:46.082,-1,-1,1767.76556776557,2.18241758241758,33.3610745924525
1743370426101,17:33:46.101,-1,-1,1764.10256410256,2.18095238095238,33.3610745924525
1743370426121,17:33:46.121,-1,-1,1715.01831501831,2.17802197802198,33.3610745924525
1743370426140,17:33:46.140,-1,-1,1634.43223443223,2.17655677655678,33.3610745924525
1743370426160,17:33:46.160,-1,-1,1514.28571428571,2.17362637362637,33.3610745924525
1743370426179,17:33:46.179,-1,-1,1394.13919413919,2.17362637362637,33.3610745924525
1743370426199,17:33:46.199,-1,-1,1295.9706959707,2.17069597069597,33.3610745924525
1743370426218,17:33:46.218,-1,-1,1227.10622710623,2.16776556776557,33.3610745924525
1743370426238,17:33:46.238,-1,-1,1183.15018315018,2.16630036630037,33.3610745924525
1743370426257,17:33:46.257,-1,-1,1158.97435897436,2.16483516483516,33.3610745924525
1743370426277,17:33:46.277,-1,-1,1150.91575091575,2.16336996336996,33.3610745924525
1743370426296,17:33:46.296,-1,-1,1156.04395604396,2.16190476190476,33.3610745924525
1743370426316,17:33:46.316,-1,-1,1161.90476190476,2.16043956043956,33.3610745924525
1743370426335,17:33:46.335,-1,-1,1167.03296703297,2.15897435897436,33.3610745924525
1743370426355,17:33:46.355,-1,-1,1158.24175824176,2.15604395604396,33.3610745924525
1743370426374,17:33:46.374,-1,-1,1133.33333333333,2.15457875457875,33.3610745924525
1743370426394,17:33:46.394,-1,-1,1104.0293040293,2.15311355311355,33.3610745924525
1743370426413,17:33:46.413,-1,-1,1076.19047619048,2.15164835164835,33.3560711749597
1743370426433,17:33:46.433,-1,-1,1033.69963369963,2.15018315018315,33.3560711749597
1743370426452,17:33:46.452,-1,-1,1005.86080586081,2.14871794871795,33.3560711749597
1743370426472,17:33:46.472,-1,-1,992.673992673993,2.14578754578755,33.3560711749597
1743370426491,17:33:46.491,-1,-1,973.626373626374,2.14432234432234,33.3560711749597
1743370426511,17:33:46.511,-1,-1,946.520146520146,2.14285714285714,33.3560711749597
1743370426530,17:33:46.530,-1,-1,937.728937728938,2.14285714285714,33.3560711749597
1743370426550,17:33:46.550,-1,-1,920.14652014652,2.13992673992674,33.3560711749597
1743370426569,17:33:46.569,-1,-1,899.6336996337,2.13846153846154,33.3560711749597
1743370426589,17:33:46.589,-1,-1,882.051282051282,2.13553113553114,33.3560711749597
1743370426608,17:33:46.608,-1,-1,861.538461538461,2.13553113553114,33.3560711749597
1743370426628,17:33:46.628,-1,-1,853.479853479853,2.13406593406593,33.3560711749597
1743370426647,17:33:46.647,-1,-1,849.084249084249,2.13260073260073,33.3560711749597
1743370426667,17:33:46.667,-1,-1,834.432234432234,2.13113553113553,33.3560711749597
1743370426686,17:33:46.686,-1,-1,857.875457875458,2.12967032967033,33.3560711749597
1743370426706,17:33:46.706,-1,-1,964.102564102564,2.12820512820513,33.3560711749597
1743370426725,17:33:46.725,-1,-1,1135.53113553114,2.12673992673993,33.3560711749597
1743370426745,17:33:46.745,-1,-1,1344.32234432234,2.12527472527472,33.3560711749597
1743370426764,17:33:46.764,-1,-1,1551.64835164835,2.12380952380952,33.3560711749597
1743370426784,17:33:46.784,-1,-1,1711.35531135531,2.12234432234432,33.3560711749597
1743370426803,17:33:46.803,-1,-1,1797.8021978022,2.12087912087912,33.3560711749597
1743370426823,17:33:46.823,-1,-1,1835.16483516484,2.11941391941392,33.3560711749597
1743370426842,17:33:46.842,-1,-1,1823.44322344322,2.11794871794872,33.3560711749597
1743370426862,17:33:46.862,-1,-1,1764.10256410256,2.11648351648352,33.3560711749597
1743370426881,17:33:46.881,-1,-1,1694.50549450549,2.11501831501831,33.3560711749597
1743370426901,17:33:46.901,-1,-1,1625.64102564103,2.11355311355311,33.3560711749597
1743370426920,17:33:46.920,-1,-1,1533.33333333333,2.11208791208791,33.3560711749597
1743370426940,17:33:46.940,-1,-1,1435.16483516484,2.11062271062271,33.3560711749597
1743370426959,17:33:46.959,-1,-1,1333.33333333333,2.10915750915751,33.3560711749597
1743370426979,17:33:46.979,-1,-1,1249.08424908425,2.10915750915751,33.3560711749597
1743370426998,17:33:46.998,-1,-1,1201.4652014652,2.10622710622711,33.3560711749597
1743370427018,17:33:47.018,-1,-1,1194.87179487179,2.10622710622711,33.3560711749597
1743370427037,17:33:47.037,-1,-1,1207.32600732601,2.1047619047619,33.3560711749597
1743370427057,17:33:47.057,-1,-1,1212.45421245421,2.1047619047619,33.3560711749597
1743370427076,17:33:47.076,-1,-1,1210.98901098901,2.1032967032967,33.3560711749597
1743370427096,17:33:47.096,-1,-1,1202.1978021978,2.1018315018315,33.3560711749597
1743370427115,17:33:47.115,-1,-1,1196.336996337,2.1018315018315,33.3560711749597
1743370427135,17:33:47.135,-1,-1,1179.48717948718,2.1003663003663,33.3560711749597
1743370427154,17:33:47.154,-1,-1,1154.57875457875,2.0989010989011,33.3560711749597
1743370427174,17:33:47.174,-1,-1,1118.68131868132,2.0974358974359,33.3560711749597
1743370427193,17:33:47.193,-1,-1,1093.77289377289,2.0959706959707,33.3560711749597
1743370427213,17:33:47.213,-1,-1,1085.71428571429,2.0959706959707,33.3560711749597
1743370427232,17:33:47.232,-1,-1,1071.06227106227,2.09450549450549,33.3560711749597
1743370427252,17:33:47.252,-1,-1,1039.56043956044,2.09304029304029,33.3560711749597
1743370427271,17:33:47.271,-1,-1,1018.31501831502,2.09157509157509,33.3560711749597
1743370427291,17:33:47.291,-1,-1,995.604395604396,2.09157509157509,33.3560711749597
1743370427310,17:33:47.310,-1,-1,971.428571428571,2.08864468864469,33.3560711749597
1743370427330,17:33:47.330,-1,-1,958.241758241758,2.08864468864469,33.3560711749597
1743370427349,17:33:47.349,-1,-1,953.113553113553,2.08717948717949,33.3560711749597
1743370427369,17:33:47.369,-1,-1,957.509157509157,2.08717948717949,33.3560711749597
1743370427388,17:33:47.388,-1,-1,950.18315018315,2.08571428571429,33.3560711749597
1743370427408,17:33:47.408,-1,-1,959.70695970696,2.08424908424908,33.3760848100064
1743370427427,17:33:47.427,-1,-1,1034.43223443223,2.08278388278388,33.3760848100064
1743370427447,17:33:47.447,-1,-1,1180.95238095238,2.08278388278388,33.3760848100064
1743370427466,17:33:47.466,-1,-1,1371.42857142857,2.08131868131868,33.3760848100064
1743370427486,17:33:47.486,-1,-1,1558.24175824176,2.07985347985348,33.3760848100064
1743370427505,17:33:47.505,-1,-1,1697.4358974359,2.07985347985348,33.3760848100064
1743370427525,17:33:47.525,-1,-1,1775.82417582418,2.07838827838828,33.3760848100064
1743370427544,17:33:47.544,-1,-1,1785.34798534799,2.07692307692308,33.3760848100064
1743370427564,17:33:47.564,-1,-1,1736.99633699634,2.07692307692308,33.3760848100064
1743370427583,17:33:47.583,-1,-1,1659.34065934066,2.07545787545788,33.3760848100064
1743370427603,17:33:47.603,-1,-1,1567.76556776557,2.07399267399267,33.3760848100064
1743370427622,17:33:47.622,-1,-1,1487.17948717949,2.07252747252747,33.3760848100064
1743370427642,17:33:47.642,-1,-1,1408.05860805861,2.07252747252747,33.3760848100064
1743370427661,17:33:47.661,-1,-1,1331.86813186813,2.07106227106227,33.3760848100064
1743370427681,17:33:47.681,-1,-1,1284.24908424908,2.06959706959707,33.3760848100064
1743370427700,17:33:47.700,-1,-1,1260.07326007326,2.06813186813187,33.3760848100064
1743370427720,17:33:47.720,-1,-1,1249.81684981685,2.06813186813187,33.3760848100064
1743370427739,17:33:47.739,-1,-1,1239.56043956044,2.06666666666667,33.3760848100064
1743370427759,17:33:47.759,-1,-1,1227.83882783883,2.06520146520146,33.3760848100064
1743370427778,17:33:47.778,-1,-1,1219.78021978022,2.06520146520146,33.3760848100064
1743370427798,17:33:47.798,-1,-1,1220.51282051282,2.06373626373626,33.3760848100064
1743370427817,17:33:47.817,-1,-1,1227.10622710623,2.06227106227106,33.3760848100064
1743370427837,17:33:47.837,-1,-1,1224.17582417582,2.06080586080586,33.3760848100064
1743370427856,17:33:47.856,-1,-1,1210.25641025641,2.06080586080586,33.3760848100064
1743370427876,17:33:47.876,-1,-1,1194.13919413919,2.05934065934066,33.3760848100064
1743370427895,17:33:47.895,-1,-1,1172.89377289377,2.05787545787546,33.3760848100064
1743370427915,17:33:47.915,-1,-1,1150.91575091575,2.05787545787546,33.3760848100064
1743370427934,17:33:47.934,-1,-1,1129.67032967033,2.05641025641026,33.3760848100064
1743370427954,17:33:47.954,-1,-1,1105.49450549451,2.05494505494505,33.3760848100064
1743370427973,17:33:47.973,-1,-1,1082.78388278388,2.05494505494505,33.3760848100064
1743370427993,17:33:47.993,-1,-1,1073.26007326007,2.05347985347985,33.3760848100064
1743370428012,17:33:48.012,-1,-1,1058.60805860806,2.05201465201465,33.3760848100064
1743370428032,17:33:48.032,-1,-1,1030.03663003663,2.05201465201465,33.3760848100064
1743370428051,17:33:48.051,-1,-1,1008.79120879121,2.05347985347985,33.3760848100064
1743370428071,17:33:48.071,-1,-1,994.871794871795,2.05494505494505,33.3760848100064
1743370428090,17:33:48.090,-1,-1,1027.83882783883,2.05494505494505,33.3760848100064
1743370428110,17:33:48.110,-1,-1,1134.79853479853,2.05347985347985,33.3760848100064
1743370428129,17:33:48.129,-1,-1,1307.69230769231,2.05347985347985,33.3760848100064
1743370428149,17:33:48.149,-1,-1,1491.57509157509,2.05347985347985,33.3760848100064
1743370428168,17:33:48.168,-1,-1,1662.27106227106,2.05201465201465,33.3760848100064
1743370428188,17:33:48.188,-1,-1,1768.49816849817,2.05054945054945,33.3760848100064
1743370428207,17:33:48.207,-1,-1,1805.86080586081,2.05054945054945,33.3760848100064
1743370428227,17:33:48.227,-1,-1,1813.91941391941,2.05054945054945,33.3760848100064
1743370428246,17:33:48.246,-1,-1,1775.82417582418,2.04908424908425,33.3760848100064
1743370428266,17:33:48.266,-1,-1,1712.82051282051,2.04761904761905,33.3760848100064
1743370428285,17:33:48.285,-1,-1,1645.42124542125,2.04615384615385,33.3760848100064
1743370428305,17:33:48.305,-1,-1,1558.24175824176,2.04615384615385,33.3760848100064
1743370428324,17:33:48.324,-1,-1,1460.80586080586,2.04615384615385,33.3760848100064
1743370428344,17:33:48.344,-1,-1,1364.83516483516,2.04468864468864,33.3760848100064
1743370428363,17:33:48.363,-1,-1,1304.0293040293,2.04468864468864,33.3760848100064
1743370428383,17:33:48.383,-1,-1,1266.66666666667,2.04322344322344,33.3760848100064
1743370428402,17:33:48.402,-1,-1,1253.47985347985,2.04175824175824,33.3860915926052
1743370428422,17:33:48.422,-1,-1,1254.94505494505,2.04175824175824,33.3860915926052
1743370428441,17:33:48.441,-1,-1,1274.72527472527,2.04029304029304,33.3860915926052
1743370428461,17:33:48.461,-1,-1,1299.6336996337,2.03882783882784,33.3860915926052
1743370428480,17:33:48.480,-1,-1,1308.42490842491,2.03882783882784,33.3860915926052
1743370428500,17:33:48.500,-1,-1,1303.2967032967,2.03736263736264,33.3860915926052
1743370428519,17:33:48.519,-1,-1,1296.7032967033,2.03736263736264,33.3860915926052
1743370428539,17:33:48.539,-1,-1,1271.79487179487,2.03589743589744,33.3860915926052
1743370428558,17:33:48.558,-1,-1,1238.82783882784,2.03589743589744,33.3860915926052
1743370428578,17:33:48.578,-1,-1,1215.38461538462,2.03443223443223,33.3860915926052
1743370428597,17:33:48.597,-1,-1,1202.1978021978,2.03443223443223,33.3860915926052
1743370428617,17:33:48.617,-1,-1,1178.75457875458,2.03296703296703,33.3860915926052
1743370428636,17:33:48.636,-1,-1,1158.24175824176,2.03150183150183,33.3860915926052
1743370428656,17:33:48.656,-1,-1,1138.46153846154,2.03150183150183,33.3860915926052
1743370428675,17:33:48.675,-1,-1,1125.27472527473,2.03003663003663,33.3860915926052
1743370428695,17:33:48.695,-1,-1,1112.08791208791,2.03003663003663,33.3860915926052
1743370428714,17:33:48.714,-1,-1,1090.84249084249,2.02857142857143,33.3860915926052
1743370428734,17:33:48.734,-1,-1,1063.00366300366,2.02857142857143,33.3860915926052
1743370428753,17:33:48.753,-1,-1,1061.53846153846,2.02857142857143,33.3860915926052
1743370428773,17:33:48.773,-1,-1,1084.98168498169,2.02710622710623,33.3860915926052
1743370428792,17:33:48.792,-1,-1,1180.21978021978,2.02710622710623,33.3860915926052
1743370428812,17:33:48.812,-1,-1,1360.43956043956,2.02564102564103,33.3860915926052
1743370428831,17:33:48.831,-1,-1,1579.48717948718,2.02564102564103,33.3860915926052
1743370428851,17:33:48.851,-1,-1,1792.67399267399,2.02564102564103,33.3860915926052
1743370428870,17:33:48.870,-1,-1,1944.32234432234,2.02417582417582,33.3860915926052
1743370428890,17:33:48.890,-1,-1,2020.51282051282,2.02417582417582,33.3860915926052
1743370428909,17:33:48.909,-1,-1,2042.49084249084,2.02271062271062,33.3860915926052
1743370428929,17:33:48.929,-1,-1,2030.03663003663,2.02271062271062,33.3860915926052
1743370428948,17:33:48.948,-1,-1,1984.61538461538,2.02124542124542,33.3860915926052
1743370428968,17:33:48.968,-1,-1,1914.28571428571,2.02124542124542,33.3860915926052
1743370428987,17:33:48.987,-1,-1,1843.22344322344,2.02124542124542,33.3860915926052
1743370429007,17:33:49.007,-1,-1,1761.17216117216,2.01978021978022,33.3860915926052
1743370429026,17:33:49.026,-1,-1,1665.93406593407,2.01831501831502,33.3860915926052
1743370429046,17:33:49.046,-1,-1,1567.76556776557,2.01831501831502,33.3860915926052
1743370429065,17:33:49.065,-1,-1,1494.50549450549,2.01684981684982,33.3860915926052
1743370429085,17:33:49.085,-1,-1,1463.00366300366,2.01684981684982,33.3860915926052
1743370429104,17:33:49.104,-1,-1,1446.88644688645,2.01538461538462,33.3860915926052
1743370429124,17:33:49.124,-1,-1,1440.29304029304,2.01538461538462,33.3860915926052
1743370429143,17:33:49.143,-1,-1,1447.61904761905,2.01391941391941,33.3860915926052
1743370429163,17:33:49.163,-1,-1,1449.08424908425,2.01391941391941,33.3860915926052
1743370429182,17:33:49.182,-1,-1,1440.29304029304,2.01391941391941,33.3860915926052
1743370429202,17:33:49.202,-1,-1,1420.51282051282,2.01245421245421,33.3860915926052
1743370429221,17:33:49.221,-1,-1,1411.72161172161,2.01098901098901,33.3860915926052
1743370429241,17:33:49.241,-1,-1,1397.0695970696,2.01098901098901,33.3860915926052
1743370429260,17:33:49.260,-1,-1,1368.49816849817,2.00952380952381,33.3860915926052
1743370429280,17:33:49.280,-1,-1,1338.46153846154,2.00952380952381,33.3860915926052
1743370429299,17:33:49.299,-1,-1,1309.89010989011,2.00952380952381,33.3860915926052
1743370429319,17:33:49.319,-1,-1,1286.44688644689,2.00805860805861,33.3860915926052
1743370429338,17:33:49.338,-1,-1,1276.19047619048,2.00805860805861,33.3860915926052
1743370429358,17:33:49.358,-1,-1,1262.27106227106,2.00659340659341,33.3860915926052
1743370429377,17:33:49.377,-1,-1,1243.95604395604,2.00659340659341,33.3860915926052
1743370429397,17:33:49.397,-1,-1,1224.90842490842,2.00512820512821,33.3860915926052
1743370429416,17:33:49.416,-1,-1,1203.663003663,2.00512820512821,33.3860915926052
1743370429436,17:33:49.436,-1,-1,1193.40659340659,2.00512820512821,33.3860915926052
1743370429455,17:33:49.455,-1,-1,1183.15018315018,2.003663003663,33.3860915926052
1743370429475,17:33:49.475,-1,-1,1191.94139194139,2.003663003663,33.3860915926052
1743370429494,17:33:49.494,-1,-1,1233.69963369963,2.003663003663,33.3860915926052
1743370429514,17:33:49.514,-1,-1,1362.63736263736,2.0021978021978,33.3860915926052
1743370429533,17:33:49.533,-1,-1,1561.17216117216,2.0021978021978,33.3860915926052
1743370429553,17:33:49.553,-1,-1,1769.96336996337,2.0007326007326,33.3860915926052
1743370429572,17:33:49.572,-1,-1,1948.71794871795,2.0007326007326,33.3860915926052
1743370429592,17:33:49.592,-1,-1,2073.99267399267,2.0007326007326,33.3860915926052
1743370429611,17:33:49.611,-1,-1,2139.19413919414,1.9992673992674,33.3860915926052
1743370429631,17:33:49.631,-1,-1,2161.17216117216,1.9992673992674,33.3860915926052
1743370429650,17:33:49.650,-1,-1,2135.53113553114,1.9992673992674,33.3860915926052
1743370429670,17:33:49.670,-1,-1,2082.78388278388,1.996336996337,33.3860915926052
1743370429689,17:33:49.689,-1,-1,2014.65201465201,1.996336996337,33.3860915926052
1743370429709,17:33:49.709,-1,-1,1936.26373626374,1.99487179487179,33.3860915926052
1743370429728,17:33:49.728,-1,-1,1850.54945054945,2.003663003663,33.3860915926052
1743370429748,17:33:49.748,-1,-1,1745.78754578755,2.00512820512821,33.3860915926052
1743370429767,17:33:49.767,-1,-1,1641.75824175824,2.00512820512821,33.3860915926052
1743370429787,17:33:49.787,-1,-1,1571.42857142857,2.0007326007326,33.3860915926052
1743370429806,17:33:49.806,-1,-1,1520.87912087912,1.99487179487179,33.3860915926052
1743370429826,17:33:49.826,-1,-1,1493.04029304029,1.98754578754579,33.3860915926052
1743370429845,17:33:49.845,-1,-1,1490.10989010989,1.97728937728938,33.3860915926052
1743370429865,17:33:49.865,-1,-1,1481.31868131868,1.96703296703297,33.3860915926052
1743370429884,17:33:49.884,-1,-1,1469.59706959707,1.95970695970696,33.3860915926052
1743370429904,17:33:49.904,-1,-1,1462.27106227106,1.95091575091575,33.3860915926052
1743370429923,17:33:49.923,-1,-1,1457.87545787546,1.94065934065934,33.3860915926052
1743370429943,17:33:49.943,-1,-1,1434.43223443223,1.93040293040293,33.3860915926052
1743370429962,17:33:49.962,-1,-1,1391.94139194139,1.93919413919414,33.3860915926052
1743370429982,17:33:49.982,-1,-1,1345.78754578755,1.94798534798535,33.3860915926052
1743370430001,17:33:50.001,-1,-1,1312.82051282051,1.94212454212454,33.3860915926052
1743370430021,17:33:50.021,-1,-1,1291.57509157509,1.93186813186813,33.3860915926052
1743370430040,17:33:50.040,-1,-1,1266.66666666667,1.92161172161172,33.3860915926052
1743370430060,17:33:50.060,-1,-1,1253.47985347985,1.91575091575092,33.3860915926052
1743370430079,17:33:50.079,-1,-1,1238.82783882784,1.90989010989011,33.3860915926052
1743370430099,17:33:50.099,-1,-1,1221.24542124542,1.9040293040293,33.3860915926052
1743370430118,17:33:50.118,-1,-1,1204.3956043956,1.9010989010989,33.3860915926052
1743370430138,17:33:50.138,-1,-1,1197.0695970696,1.8996336996337,33.3860915926052
1743370430157,17:33:50.157,-1,-1,1178.75457875458,1.8981684981685,33.3860915926052
1743370430177,17:33:50.177,-1,-1,1168.49816849817,1.9025641025641,33.3860915926052
1743370430196,17:33:50.196,-1,-1,1155.31135531136,1.90842490842491,33.3860915926052
1743370430216,17:33:50.216,-1,-1,1152.38095238095,1.91575091575092,33.3860915926052
1743370430235,17:33:50.235,-1,-1,1158.97435897436,1.92161172161172,33.3860915926052
1743370430255,17:33:50.255,-1,-1,1215.38461538462,1.92747252747253,33.3860915926052
1743370430274,17:33:50.274,-1,-1,1374.35897435897,1.93479853479853,33.3860915926052
1743370430294,17:33:50.294,-1,-1,1583.88278388278,1.93772893772894,33.3860915926052
1743370430313,17:33:50.313,-1,-1,1791.94139194139,1.93919413919414,33.3860915926052
1743370430333,17:33:50.333,-1,-1,1980.95238095238,1.93772893772894,33.3860915926052
1743370430352,17:33:50.352,-1,-1,2093.77289377289,1.93919413919414,33.3860915926052
1743370430372,17:33:50.372,-1,-1,2124.54212454212,1.93919413919414,33.3860915926052
1743370430391,17:33:50.391,-1,-1,2093.04029304029,1.93919413919414,33.4011017228477
1743370430411,17:33:50.411,-1,-1,2022.71062271062,1.93479853479853,33.4011017228477
1743370430430,17:33:50.430,-1,-1,1949.45054945055,1.93186813186813,33.4011017228477
1743370430450,17:33:50.450,-1,-1,1873.99267399267,1.92747252747253,33.4011017228477
1743370430469,17:33:50.469,-1,-1,1800.7326007326,1.92307692307692,33.4011017228477
1743370430489,17:33:50.489,-1,-1,1713.55311355311,1.91868131868132,33.4011017228477
1743370430508,17:33:50.508,-1,-1,1621.24542124542,1.91575091575092,33.4011017228477
1743370430528,17:33:50.528,-1,-1,1531.86813186813,1.91428571428571,33.4011017228477
1743370430547,17:33:50.547,-1,-1,1465.93406593407,1.91282051282051,33.4011017228477
1743370430567,17:33:50.567,-1,-1,1421.97802197802,1.90989010989011,33.4011017228477
1743370430586,17:33:50.586,-1,-1,1405.86080586081,1.90989010989011,33.4011017228477
1743370430606,17:33:50.606,-1,-1,1400,1.90842490842491,33.4011017228477
1743370430625,17:33:50.625,-1,-1,1388.27838827839,1.90842490842491,33.4011017228477
1743370430645,17:33:50.645,-1,-1,1380.21978021978,1.90695970695971,33.4011017228477
1743370430664,17:33:50.664,-1,-1,1369.96336996337,1.90989010989011,33.4011017228477
1743370430684,17:33:50.684,-1,-1,1353.11355311355,1.91282051282051,33.4011017228477
1743370430703,17:33:50.703,-1,-1,1331.86813186813,1.91868131868132,33.4011017228477
1743370430723,17:33:50.723,-1,-1,1297.4358974359,1.92600732600733,33.4011017228477
1743370430742,17:33:50.742,-1,-1,1247.61904761905,1.93626373626374,33.4011017228477
1743370430762,17:33:50.762,-1,-1,1190.47619047619,1.94358974358974,33.4011017228477
1743370430782,17:33:50.781,-1,-1,1165.56776556777,1.95238095238095,33.4011017228477
1743370430801,17:33:50.801,-1,-1,1153.11355311355,1.95824175824176,33.4011017228477
1743370430821,17:33:50.820,-1,-1,1134.79853479853,1.96410256410256,33.4011017228477
1743370430840,17:33:50.840,-1,-1,1129.67032967033,1.96996336996337,33.4011017228477
1743370430860,17:33:50.859,-1,-1,1132.60073260073,1.97728937728938,33.4011017228477
1743370430879,17:33:50.879,-1,-1,1136.26373626374,1.98315018315018,33.4011017228477
1743370430899,17:33:50.899,-1,-1,1123.07692307692,1.98754578754579,33.4011017228477
1743370430918,17:33:50.918,-1,-1,1109.89010989011,1.99340659340659,33.4011017228477
1743370430938,17:33:50.938,-1,-1,1093.77289377289,1.9978021978022,33.4011017228477
1743370430957,17:33:50.957,-1,-1,1071.06227106227,2.0021978021978,33.4011017228477
1743370430977,17:33:50.977,-1,-1,1052.74725274725,2.00659340659341,33.4011017228477
1743370430996,17:33:50.996,-1,-1,1046.88644688645,2.00952380952381,33.4011017228477
1743370431016,17:33:51.016,-1,-1,1041.75824175824,2.01245421245421,33.4011017228477
1743370431035,17:33:51.035,-1,-1,1054.94505494505,2.01538461538462,33.4011017228477
1743370431055,17:33:51.055,-1,-1,1079.85347985348,2.01684981684982,33.4011017228477
1743370431074,17:33:51.074,-1,-1,1176.55677655678,2.01684981684982,33.4011017228477
1743370431094,17:33:51.094,-1,-1,1340.65934065934,2.01831501831502,33.4011017228477
1743370431113,17:33:51.113,-1,-1,1527.47252747253,2.01831501831502,33.4011017228477
1743370431133,17:33:51.133,-1,-1,1696.7032967033,2.01831501831502,33.4011017228477
1743370431152,17:33:51.152,-1,-1,1816.11721611722,2.01831501831502,33.4011017228477
1743370431172,17:33:51.172,-1,-1,1869.59706959707,2.01831501831502,33.4011017228477
1743370431191,17:33:51.191,-1,-1,1873.99267399267,2.01684981684982,33.4011017228477
1743370431211,17:33:51.211,-1,-1,1846.15384615385,2.01684981684982,33.4011017228477
1743370431230,17:33:51.230,-1,-1,1795.6043956044,2.01684981684982,33.4011017228477
1743370431250,17:33:51.250,-1,-1,1737.72893772894,2.01684981684982,33.4011017228477
1743370431269,17:33:51.269,-1,-1,1685.71428571429,2.01391941391941,33.4011017228477
1743370431289,17:33:51.289,-1,-1,1610.25641025641,2.01391941391941,33.4011017228477
1743370431308,17:33:51.308,-1,-1,1513.55311355311,2.01391941391941,33.4011017228477
1743370431328,17:33:51.328,-1,-1,1427.10622710623,2.01391941391941,33.4011017228477
1743370431347,17:33:51.347,-1,-1,1356.77655677656,2.01538461538462,33.4011017228477
1743370431367,17:33:51.367,-1,-1,1321.61172161172,2.01538461538462,33.4011017228477
1743370431386,17:33:51.386,-1,-1,1314.28571428571,2.01538461538462,33.396098351921
1743370431406,17:33:51.406,-1,-1,1315.01831501831,2.01684981684982,33.396098351921
1743370431425,17:33:51.425,-1,-1,1326.00732600733,2.01684981684982,33.396098351921
1743370431445,17:33:51.445,-1,-1,1339.19413919414,2.01831501831502,33.396098351921
1743370431464,17:33:51.464,-1,-1,1338.46153846154,2.01978021978022,33.396098351921
1743370431484,17:33:51.484,-1,-1,1310.62271062271,2.02124542124542,33.396098351921
1743370431503,17:33:51.503,-1,-1,1266.66666666667,2.02271062271062,33.396098351921
1743370431523,17:33:51.523,-1,-1,1237.36263736264,2.02124542124542,33.396098351921
1743370431542,17:33:51.542,-1,-1,1223.44322344322,2.02124542124542,33.396098351921
1743370431562,17:33:51.562,-1,-1,1207.32600732601,2.02124542124542,33.396098351921
1743370431581,17:33:51.581,-1,-1,1180.95238095238,2.02124542124542,33.396098351921
1743370431601,17:33:51.601,-1,-1,1164.10256410256,2.01978021978022,33.396098351921
1743370431620,17:33:51.620,-1,-1,1130.40293040293,2.01831501831502,33.396098351921
1743370431640,17:33:51.640,-1,-1,1095.2380952381,2.01684981684982,33.396098351921
1743370431659,17:33:51.659,-1,-1,1090.10989010989,2.01538461538462,33.396098351921
1743370431679,17:33:51.679,-1,-1,1095.2380952381,2.01538461538462,33.396098351921
1743370431698,17:33:51.698,-1,-1,1094.50549450549,2.01391941391941,33.396098351921
1743370431718,17:33:51.718,-1,-1,1090.10989010989,2.01245421245421,33.396098351921
1743370431737,17:33:51.737,-1,-1,1096.7032967033,2.01245421245421,33.396098351921
1743370431757,17:33:51.757,-1,-1,1103.2967032967,2.00952380952381,33.396098351921
1743370431776,17:33:51.776,-1,-1,1098.1684981685,2.00805860805861,33.396098351921
1743370431796,17:33:51.796,-1,-1,1106.95970695971,2.00512820512821,33.396098351921
1743370431815,17:33:51.815,-1,-1,1167.03296703297,2.0021978021978,33.396098351921
1743370431835,17:33:51.835,-1,-1,1299.6336996337,2.0007326007326,33.396098351921
1743370431854,17:33:51.854,-1,-1,1464.46886446886,2.0007326007326,33.396098351921
1743370431874,17:33:51.874,-1,-1,1624.17582417582,2.0007326007326,33.396098351921
1743370431893,17:33:51.893,-1,-1,1742.12454212454,1.9992673992674,33.396098351921
1743370431913,17:33:51.913,-1,-1,1789.74358974359,1.9992673992674,33.396098351921
1743370431932,17:33:51.932,-1,-1,1783.88278388278,1.9978021978022,33.396098351921
1743370431952,17:33:51.952,-1,-1,1756.77655677656,1.9978021978022,33.396098351921
1743370431971,17:33:51.971,-1,-1,1709.15750915751,1.9978021978022,33.396098351921
1743370431991,17:33:51.991,-1,-1,1643.95604395604,1.9978021978022,33.396098351921
1743370432010,17:33:52.010,-1,-1,1578.75457875458,1.9978021978022,33.396098351921
1743370432030,17:33:52.030,-1,-1,1511.35531135531,1.9978021978022,33.396098351921
1743370432049,17:33:52.049,-1,-1,1421.97802197802,1.996336996337,33.396098351921
1743370432069,17:33:52.069,-1,-1,1355.31135531136,1.996336996337,33.396098351921
1743370432088,17:33:52.088,-1,-1,1317.94871794872,1.99487179487179,33.396098351921
1743370432108,17:33:52.108,-1,-1,1304.0293040293,1.99487179487179,33.396098351921
1743370432127,17:33:52.127,-1,-1,1312.08791208791,1.99487179487179,33.396098351921
1743370432147,17:33:52.147,-1,-1,1342.85714285714,1.99487179487179,33.396098351921
1743370432166,17:33:52.166,-1,-1,1369.96336996337,1.99340659340659,33.396098351921
1743370432186,17:33:52.186,-1,-1,1374.35897435897,1.99340659340659,33.396098351921
1743370432205,17:33:52.205,-1,-1,1358.24175824176,1.99194139194139,33.396098351921
1743370432225,17:33:52.225,-1,-1,1329.67032967033,1.99194139194139,33.396098351921
1743370432244,17:33:52.244,-1,-1,1300.3663003663,1.99047619047619,33.396098351921
1743370432264,17:33:52.264,-1,-1,1277.65567765568,1.99194139194139,33.396098351921
1743370432283,17:33:52.283,-1,-1,1246.88644688645,1.99194139194139,33.396098351921
1743370432303,17:33:52.303,-1,-1,1216.84981684982,1.99194139194139,33.396098351921
1743370432322,17:33:52.322,-1,-1,1196.336996337,1.99047619047619,33.396098351921
1743370432342,17:33:52.342,-1,-1,1175.09157509158,1.99047619047619,33.396098351921
1743370432361,17:33:52.361,-1,-1,1147.98534798535,1.99194139194139,33.396098351921
1743370432381,17:33:52.381,-1,-1,1133.33333333333,1.99194139194139,33.4011017228477
1743370432400,17:33:52.400,-1,-1,1116.48351648352,1.99047619047619,33.4011017228477
1743370432420,17:33:52.420,-1,-1,1106.22710622711,1.99047619047619,33.4011017228477
1743370432439,17:33:52.439,-1,-1,1102.5641025641,1.99047619047619,33.4011017228477
1743370432459,17:33:52.459,-1,-1,1098.1684981685,1.99047619047619,33.4011017228477
1743370432478,17:33:52.478,-1,-1,1087.91208791209,1.99047619047619,33.4011017228477
1743370432498,17:33:52.498,-1,-1,1090.84249084249,1.98901098901099,33.4011017228477
1743370432517,17:33:52.517,-1,-1,1128.93772893773,1.99047619047619,33.4011017228477
1743370432537,17:33:52.537,-1,-1,1235.89743589744,1.98754578754579,33.4011017228477
1743370432556,17:33:52.556,-1,-1,1408.05860805861,1.98608058608059,33.4011017228477
1743370432576,17:33:52.576,-1,-1,1581.68498168498,1.98608058608059,33.4011017228477
1743370432595,17:33:52.595,-1,-1,1719.41391941392,1.96556776556777,33.4011017228477
1743370432615,17:33:52.615,-1,-1,1797.8021978022,1.95091575091575,33.4011017228477
1743370432634,17:33:52.634,-1,-1,1828.57142857143,1.94945054945055,33.4011017228477
1743370432654,17:33:52.654,-1,-1,1808.05860805861,1.94945054945055,33.4011017228477
1743370432673,17:33:52.673,-1,-1,1755.31135531136,1.94945054945055,33.4011017228477
1743370432693,17:33:52.693,-1,-1,1687.17948717949,1.94798534798535,33.4011017228477
1743370432712,17:33:52.712,-1,-1,1632.23443223443,1.94798534798535,33.4011017228477
1743370432732,17:33:52.732,-1,-1,1576.55677655678,1.94798534798535,33.4011017228477
1743370432751,17:33:52.751,-1,-1,1507.69230769231,1.94652014652015,33.4011017228477
1743370432771,17:33:52.771,-1,-1,1439.56043956044,1.94652014652015,33.4011017228477
1743370432790,17:33:52.790,-1,-1,1375.09157509157,1.94652014652015,33.4011017228477
1743370432810,17:33:52.810,-1,-1,1332.60073260073,1.94358974358974,33.4011017228477
1743370432829,17:33:52.829,-1,-1,1313.55311355311,1.94358974358974,33.4011017228477
1743370432849,17:33:52.849,-1,-1,1315.01831501831,1.94212454212454,33.4011017228477
1743370432868,17:33:52.868,-1,-1,1328.93772893773,1.94212454212454,33.4011017228477
1743370432888,17:33:52.888,-1,-1,1342.85714285714,1.94065934065934,33.4011017228477
1743370432907,17:33:52.907,-1,-1,1335.53113553114,1.94065934065934,33.4011017228477
1743370432927,17:33:52.927,-1,-1,1309.15750915751,1.93919413919414,33.4011017228477
1743370432946,17:33:52.946,-1,-1,1284.24908424908,1.93919413919414,33.4011017228477
1743370432966,17:33:52.966,-1,-1,1268.86446886447,1.93919413919414,33.4011017228477
1743370432985,17:33:52.985,-1,-1,1252.74725274725,1.93919413919414,33.4011017228477
1743370433005,17:33:53.005,-1,-1,1236.63003663004,1.93919413919414,33.4011017228477
1743370433024,17:33:53.024,-1,-1,1216.84981684982,1.93919413919414,33.4011017228477
1743370433044,17:33:53.044,-1,-1,1192.67399267399,1.93919413919414,33.4011017228477
1743370433063,17:33:53.063,-1,-1,1164.10256410256,1.93919413919414,33.4011017228477
1743370433083,17:33:53.083,-1,-1,1150.18315018315,1.93919413919414,33.4011017228477
1743370433102,17:33:53.102,-1,-1,1125.27472527473,1.93919413919414,33.4011017228477
1743370433122,17:33:53.122,-1,-1,1106.22710622711,1.94065934065934,33.4011017228477
1743370433141,17:33:53.141,-1,-1,1090.10989010989,1.93919413919414,33.4011017228477
1743370433161,17:33:53.161,-1,-1,1092.30769230769,1.93919413919414,33.4011017228477
1743370433180,17:33:53.180,-1,-1,1104.0293040293,1.93919413919414,33.4011017228477
1743370433200,17:33:53.200,-1,-1,1115.01831501831,1.93479853479853,33.4011017228477
1743370433219,17:33:53.219,-1,-1,1097.4358974359,1.93333333333333,33.4011017228477
1743370433239,17:33:53.239,-1,-1,1087.91208791209,1.93186813186813,33.4011017228477
1743370433258,17:33:53.258,-1,-1,1084.24908424908,1.93040293040293,33.4011017228477
1743370433278,17:33:53.278,-1,-1,1076.92307692308,1.92893772893773,33.4011017228477
1743370433297,17:33:53.297,-1,-1,1074.72527472527,1.92747252747253,33.4011017228477
1743370433317,17:33:53.317,-1,-1,1097.4358974359,1.92600732600733,33.4011017228477
1743370433336,17:33:53.336,-1,-1,1200.7326007326,1.92454212454212,33.4011017228477
1743370433356,17:33:53.356,-1,-1,1375.09157509157,1.92307692307692,33.4011017228477
1743370433375,17:33:53.375,-1,-1,1568.49816849817,1.92161172161172,33.4061050879536
1743370433395,17:33:53.395,-1,-1,1731.86813186813,1.92014652014652,33.4061050879536
1743370433414,17:33:53.414,-1,-1,1854.21245421245,1.92161172161172,33.4061050879536
1743370433434,17:33:53.434,-1,-1,1901.0989010989,1.92161172161172,33.4061050879536
1743370433453,17:33:53.453,-1,-1,1900.3663003663,1.92014652014652,33.4061050879536
1743370433473,17:33:53.473,-1,-1,1876.92307692308,1.92014652014652,33.4061050879536
1743370433492,17:33:53.492,-1,-1,1834.43223443223,1.92014652014652,33.4061050879536
1743370433512,17:33:53.512,-1,-1,1778.02197802198,1.92014652014652,33.4061050879536
1743370433531,17:33:53.531,-1,-1,1723.80952380952,1.92161172161172,33.4061050879536
1743370433551,17:33:53.551,-1,-1,1677.65567765568,1.92307692307692,33.4061050879536
1743370433570,17:33:53.570,-1,-1,1612.45421245421,1.92307692307692,33.4061050879536
1743370433590,17:33:53.590,-1,-1,1535.53113553114,1.92454212454212,33.4061050879536
1743370433609,17:33:53.609,-1,-1,1468.86446886447,1.92454212454212,33.4061050879536
1743370433629,17:33:53.629,-1,-1,1411.72161172161,1.92600732600733,33.4061050879536
1743370433648,17:33:53.648,-1,-1,1378.75457875458,1.92747252747253,33.4061050879536
1743370433668,17:33:53.668,-1,-1,1369.96336996337,1.92893772893773,33.4061050879536
1743370433687,17:33:53.687,-1,-1,1369.23076923077,1.92893772893773,33.4061050879536
1743370433707,17:33:53.707,-1,-1,1369.96336996337,1.92893772893773,33.4061050879536
1743370433726,17:33:53.726,-1,-1,1369.23076923077,1.92893772893773,33.4061050879536
1743370433746,17:33:53.746,-1,-1,1363.36996336996,1.92893772893773,33.4061050879536
1743370433765,17:33:53.765,-1,-1,1342.85714285714,1.92747252747253,33.4061050879536
1743370433785,17:33:53.785,-1,-1,1306.22710622711,1.92893772893773,33.4061050879536
1743370433804,17:33:53.804,-1,-1,1272.52747252747,1.92893772893773,33.4061050879536
1743370433824,17:33:53.824,-1,-1,1256.41025641026,1.93040293040293,33.4061050879536
1743370433843,17:33:53.843,-1,-1,1231.50183150183,1.93186813186813,33.4061050879536
1743370433863,17:33:53.863,-1,-1,1190.47619047619,1.93333333333333,33.4061050879536
1743370433882,17:33:53.882,-1,-1,1164.10256410256,1.93626373626374,33.4061050879536
1743370433902,17:33:53.902,-1,-1,1139.19413919414,1.93772893772894,33.4061050879536
1743370433921,17:33:53.921,-1,-1,1117.21611721612,1.93919413919414,33.4061050879536
1743370433941,17:33:53.941,-1,-1,1101.8315018315,1.94065934065934,33.4061050879536
1743370433960,17:33:53.960,-1,-1,1098.1684981685,1.94212454212454,33.4061050879536
1743370433980,17:33:53.980,-1,-1,1105.49450549451,1.94358974358974,33.4061050879536
1743370433999,17:33:53.999,-1,-1,1105.49450549451,1.94358974358974,33.4061050879536
1743370434019,17:33:54.019,-1,-1,1099.6336996337,1.94505494505494,33.4061050879536
1743370434038,17:33:54.038,-1,-1,1090.84249084249,1.94358974358974,33.4061050879536
1743370434058,17:33:54.058,-1,-1,1082.78388278388,1.94358974358974,33.4061050879536
1743370434077,17:33:54.077,-1,-1,1086.44688644689,1.94505494505494,33.4061050879536
1743370434097,17:33:54.097,-1,-1,1101.0989010989,1.94505494505494,33.4061050879536
1743370434116,17:33:54.116,-1,-1,1112.82051282051,1.94652014652015,33.4061050879536
1743370434136,17:33:54.136,-1,-1,1104.0293040293,1.94652014652015,33.4061050879536
1743370434155,17:33:54.155,-1,-1,1089.37728937729,1.94798534798535,33.4061050879536
1743370434175,17:33:54.175,-1,-1,1092.30769230769,1.94945054945055,33.4061050879536
1743370434194,17:33:54.194,-1,-1,1173.62637362637,1.94945054945055,33.4061050879536
1743370434214,17:33:54.214,-1,-1,1331.86813186813,1.94945054945055,33.4061050879536
1743370434233,17:33:54.233,-1,-1,1528.93772893773,1.94945054945055,33.4061050879536
1743370434253,17:33:54.253,-1,-1,1709.89010989011,1.94798534798535,33.4061050879536
1743370434272,17:33:54.272,-1,-1,1848.35164835165,1.94798534798535,33.4061050879536
1743370434292,17:33:54.292,-1,-1,1924.54212454212,1.94652014652015,33.4061050879536
1743370434311,17:33:54.311,-1,-1,1959.70695970696,1.94652014652015,33.4061050879536
1743370434331,17:33:54.331,-1,-1,1969.23076923077,1.94652014652015,33.4061050879536
1743370434350,17:33:54.350,-1,-1,1953.11355311355,1.94652014652015,33.4061050879536
1743370434370,17:33:54.370,-1,-1,1920.87912087912,1.94652014652015,33.4061050879536
1743370434389,17:33:54.389,-1,-1,1867.39926739927,1.95091575091575,33.4061050879536
1743370434409,17:33:54.409,-1,-1,1797.0695970696,1.95091575091575,33.4061050879536
1743370434428,17:33:54.428,-1,-1,1720.14652014652,1.95238095238095,33.4061050879536
1743370434448,17:33:54.448,-1,-1,1630.03663003663,1.95531135531136,33.4061050879536
1743370434467,17:33:54.467,-1,-1,1546.52014652015,1.95384615384615,33.4061050879536
1743370434487,17:33:54.487,-1,-1,1494.50549450549,1.95531135531136,33.4061050879536
1743370434506,17:33:54.506,-1,-1,1465.20146520146,1.95970695970696,33.4061050879536
1743370434526,17:33:54.526,-1,-1,1451.28205128205,1.96263736263736,33.4061050879536
1743370434545,17:33:54.545,-1,-1,1436.63003663004,1.96410256410256,33.4061050879536
1743370434565,17:33:54.565,-1,-1,1434.43223443223,1.96703296703297,33.4061050879536
1743370434584,17:33:54.584,-1,-1,1416.84981684982,1.96996336996337,33.4061050879536
1743370434604,17:33:54.604,-1,-1,1400,1.96996336996337,33.4061050879536
1743370434623,17:33:54.623,-1,-1,1371.42857142857,1.97142857142857,33.4061050879536
1743370434643,17:33:54.643,-1,-1,1347.25274725275,1.97435897435897,33.4061050879536
1743370434662,17:33:54.662,-1,-1,1318.68131868132,1.97728937728938,33.4061050879536
1743370434682,17:33:54.682,-1,-1,1287.17948717949,1.97875457875458,33.4061050879536
1743370434701,17:33:54.701,-1,-1,1263.00366300366,1.98168498168498,33.4061050879536
1743370434721,17:33:54.721,-1,-1,1246.15384615385,1.98608058608059,33.4061050879536
1743370434740,17:33:54.740,-1,-1,1219.78021978022,2.00952380952381,33.4061050879536
1743370434760,17:33:54.760,-1,-1,1180.95238095238,2.02124542124542,33.4061050879536
1743370434779,17:33:54.779,-1,-1,1151.64835164835,2.02710622710623,33.4061050879536
1743370434799,17:33:54.799,-1,-1,1129.67032967033,2.03003663003663,33.4061050879536
1743370434818,17:33:54.818,-1,-1,1119.41391941392,2.03296703296703,33.4061050879536
1743370434838,17:33:54.838,-1,-1,1121.61172161172,2.03882783882784,33.4061050879536
1743370434857,17:33:54.857,-1,-1,1113.55311355311,2.04029304029304,33.4061050879536
1743370434877,17:33:54.877,-1,-1,1110.62271062271,2.04322344322344,33.4061050879536
1743370434896,17:33:54.896,-1,-1,1104.0293040293,2.04468864468864,33.4061050879536
1743370434916,17:33:54.916,-1,-1,1095.2380952381,2.04761904761905,33.4061050879536
1743370434935,17:33:54.935,-1,-1,1091.57509157509,2.04761904761905,33.4061050879536
1743370434955,17:33:54.955,-1,-1,1089.37728937729,2.04908424908425,33.4061050879536
1743370434974,17:33:54.974,-1,-1,1082.05128205128,2.05054945054945,33.4061050879536
1743370434994,17:33:54.994,-1,-1,1084.24908424908,2.05054945054945,33.4061050879536
1743370435013,17:33:55.013,-1,-1,1084.98168498169,2.05201465201465,33.4061050879536
1743370435033,17:33:55.033,-1,-1,1070.32967032967,2.05347985347985,33.4061050879536
1743370435052,17:33:55.052,-1,-1,1073.99267399267,2.05787545787546,33.4061050879536
1743370435072,17:33:55.072,-1,-1,1134.79853479853,2.06080586080586,33.4061050879536
1743370435091,17:33:55.091,-1,-1,1276.92307692308,2.06227106227106,33.4061050879536
1743370435111,17:33:55.111,-1,-1,1473.99267399267,2.06227106227106,33.4061050879536
1743370435130,17:33:55.130,-1,-1,1686.44688644689,2.06373626373626,33.4061050879536
1743370435150,17:33:55.150,-1,-1,1871.06227106227,2.06373626373626,33.4061050879536
1743370435169,17:33:55.169,-1,-1,2005.86080586081,2.06520146520146,33.4061050879536
1743370435189,17:33:55.189,-1,-1,2068.86446886447,2.06666666666667,33.4061050879536
1743370435208,17:33:55.208,-1,-1,2083.51648351648,2.06666666666667,33.4061050879536
1743370435228,17:33:55.228,-1,-1,2062.27106227106,2.06666666666667,33.4061050879536
1743370435247,17:33:55.247,-1,-1,2007.32600732601,2.06813186813187,33.4061050879536
1743370435267,17:33:55.267,-1,-1,1951.64835164835,2.06813186813187,33.4061050879536
1743370435286,17:33:55.286,-1,-1,1890.10989010989,2.06959706959707,33.4061050879536
1743370435306,17:33:55.306,-1,-1,1813.91941391941,2.07106227106227,33.4061050879536
1743370435325,17:33:55.325,-1,-1,1723.80952380952,2.07252747252747,33.4061050879536
1743370435345,17:33:55.345,-1,-1,1626.37362637363,2.07399267399267,33.4061050879536
1743370435364,17:33:55.364,-1,-1,1535.53113553114,2.07399267399267,33.4111084472388
1743370435384,17:33:55.384,-1,-1,1479.85347985348,2.07545787545788,33.4111084472388
1743370435403,17:33:55.403,-1,-1,1449.81684981685,2.07545787545788,33.4111084472388
1743370435423,17:33:55.423,-1,-1,1444.68864468864,2.07545787545788,33.4111084472388
1743370435442,17:33:55.442,-1,-1,1449.08424908425,2.07692307692308,33.4111084472388
1743370435462,17:33:55.462,-1,-1,1457.14285714286,2.07838827838828,33.4111084472388
1743370435481,17:33:55.481,-1,-1,1460.80586080586,2.07838827838828,33.4111084472388
1743370435501,17:33:55.501,-1,-1,1446.88644688645,2.07838827838828,33.4111084472388
1743370435520,17:33:55.520,-1,-1,1406.59340659341,2.07985347985348,33.4111084472388
1743370435540,17:33:55.540,-1,-1,1364.83516483516,2.07985347985348,33.4111084472388
1743370435559,17:33:55.559,-1,-1,1327.47252747253,2.07838827838828,33.4111084472388
1743370435579,17:33:55.579,-1,-1,1282.05128205128,2.07985347985348,33.4111084472388
1743370435598,17:33:55.598,-1,-1,1240.29304029304,2.07838827838828,33.4111084472388
1743370435618,17:33:55.618,-1,-1,1205.86080586081,2.07985347985348,33.4111084472388
1743370435637,17:33:55.637,-1,-1,1181.68498168498,2.07838827838828,33.4111084472388
1743370435657,17:33:55.657,-1,-1,1161.17216117216,2.07838827838828,33.4111084472388
1743370435676,17:33:55.676,-1,-1,1136.99633699634,2.07838827838828,33.4111084472388
1743370435696,17:33:55.696,-1,-1,1126.00732600733,2.07692307692308,33.4111084472388
1743370435715,17:33:55.715,-1,-1,1108.42490842491,2.07692307692308,33.4111084472388
1743370435735,17:33:55.735,-1,-1,1091.57509157509,2.07545787545788,33.4111084472388
1743370435754,17:33:55.754,-1,-1,1087.17948717949,2.07106227106227,33.4111084472388
1743370435774,17:33:55.774,-1,-1,1094.50549450549,2.06813186813187,33.4111084472388
1743370435793,17:33:55.793,-1,-1,1087.91208791209,2.06666666666667,33.4111084472388
1743370435813,17:33:55.813,-1,-1,1065.20146520147,2.06520146520146,33.4111084472388
1743370435832,17:33:55.832,-1,-1,1057.14285714286,2.06227106227106,33.4111084472388
1743370435852,17:33:55.852,-1,-1,1071.79487179487,2.05934065934066,33.4111084472388
1743370435871,17:33:55.871,-1,-1,1087.17948717949,2.05201465201465,33.4111084472388
1743370435891,17:33:55.891,-1,-1,1095.2380952381,2.04468864468864,33.4111084472388
1743370435910,17:33:55.910,-1,-1,1097.4358974359,2.04029304029304,33.4111084472388
1743370435930,17:33:55.930,-1,-1,1103.2967032967,2.03589743589744,33.4111084472388
1743370435949,17:33:55.949,-1,-1,1120.14652014652,2.03150183150183,33.4111084472388
1743370435969,17:33:55.969,-1,-1,1197.0695970696,2.02857142857143,33.4111084472388
1743370435988,17:33:55.988,-1,-1,1369.96336996337,2.02417582417582,33.4111084472388
1743370436008,17:33:56.008,-1,-1,1576.55677655678,2.02124542124542,33.4111084472388
1743370436027,17:33:56.027,-1,-1,1786.08058608059,2.01684981684982,33.4111084472388
1743370436047,17:33:56.047,-1,-1,1959.70695970696,2.01538461538462,33.4111084472388
1743370436066,17:33:56.066,-1,-1,2052.01465201465,2.01391941391941,33.4111084472388
1743370436086,17:33:56.086,-1,-1,2065.20146520146,2.01098901098901,33.4111084472388
1743370436105,17:33:56.105,-1,-1,2027.83882783883,2.01098901098901,33.4111084472388
1743370436125,17:33:56.125,-1,-1,1960.43956043956,2.01098901098901,33.4111084472388
1743370436144,17:33:56.144,-1,-1,1886.44688644689,2.00952380952381,33.4111084472388
1743370436164,17:33:56.164,-1,-1,1805.12820512821,2.00952380952381,33.4111084472388
1743370436183,17:33:56.183,-1,-1,1721.61172161172,2.00805860805861,33.4111084472388
1743370436203,17:33:56.203,-1,-1,1624.90842490842,2.00805860805861,33.4111084472388
1743370436222,17:33:56.222,-1,-1,1519.41391941392,2.00805860805861,33.4111084472388
1743370436242,17:33:56.242,-1,-1,1426.37362637363,2.00659340659341,33.4111084472388
1743370436261,17:33:56.261,-1,-1,1376.55677655678,2.00659340659341,33.4111084472388
1743370436281,17:33:56.281,-1,-1,1367.03296703297,2.00659340659341,33.4111084472388
1743370436300,17:33:56.300,-1,-1,1386.81318681319,2.00659340659341,33.4111084472388
1743370436320,17:33:56.320,-1,-1,1406.59340659341,2.00512820512821,33.4111084472388
1743370436339,17:33:56.339,-1,-1,1420.51282051282,2.00512820512821,33.4111084472388
1743370436359,17:33:56.359,-1,-1,1424.17582417582,2.00512820512821,33.4061050879536
1743370436378,17:33:56.378,-1,-1,1433.69963369963,2.00512820512821,33.4061050879536
1743370436398,17:33:56.398,-1,-1,1424.17582417582,2.003663003663,33.4061050879536
1743370436417,17:33:56.417,-1,-1,1383.15018315018,2.003663003663,33.4061050879536
1743370436437,17:33:56.437,-1,-1,1344.32234432234,2.003663003663,33.4061050879536
1743370436456,17:33:56.456,-1,-1,1303.2967032967,2.0021978021978,33.4061050879536
1743370436476,17:33:56.476,-1,-1,1252.01465201465,2.0021978021978,33.4061050879536
1743370436495,17:33:56.495,-1,-1,1213.18681318681,2.0021978021978,33.4061050879536
1743370436515,17:33:56.515,-1,-1,1178.75457875458,2.0007326007326,33.4061050879536
1743370436534,17:33:56.534,-1,-1,1147.98534798535,2.0007326007326,33.4061050879536
1743370436554,17:33:56.554,-1,-1,1129.67032967033,1.9992673992674,33.4061050879536
1743370436573,17:33:56.573,-1,-1,1125.27472527473,2.0021978021978,33.4061050879536
1743370436593,17:33:56.593,-1,-1,1124.54212454212,2.00512820512821,33.4061050879536
1743370436612,17:33:56.612,-1,-1,1134.79853479853,2.00805860805861,33.4061050879536
1743370436632,17:33:56.632,-1,-1,1126.73992673993,2.00805860805861,33.4061050879536
1743370436651,17:33:56.651,-1,-1,1107.69230769231,2.00805860805861,33.4061050879536
1743370436671,17:33:56.671,-1,-1,1095.2380952381,2.00659340659341,33.4061050879536
1743370436690,17:33:56.690,-1,-1,1087.91208791209,2.00512820512821,33.4061050879536
1743370436710,17:33:56.710,-1,-1,1089.37728937729,2.003663003663,33.4061050879536
1743370436729,17:33:56.729,-1,-1,1101.0989010989,2.0021978021978,33.4061050879536
1743370436749,17:33:56.749,-1,-1,1142.12454212454,2.0007326007326,33.4061050879536
1743370436768,17:33:56.768,-1,-1,1230.03663003663,1.996336996337,33.4061050879536
1743370436788,17:33:56.788,-1,-1,1391.20879120879,1.996336996337,33.4061050879536
1743370436807,17:33:56.807,-1,-1,1587.54578754579,2.00805860805861,33.4061050879536
1743370436827,17:33:56.827,-1,-1,1787.54578754579,2.01538461538462,33.4061050879536
1743370436846,17:33:56.846,-1,-1,1953.11355311355,2.01684981684982,33.4061050879536
1743370436866,17:33:56.866,-1,-1,2056.41025641026,2.01831501831502,33.4061050879536
1743370436885,17:33:56.885,-1,-1,2074.72527472527,2.01831501831502,33.4061050879536
1743370436905,17:33:56.905,-1,-1,2026.37362637363,2.01391941391941,33.4061050879536
1743370436924,17:33:56.924,-1,-1,1947.25274725275,2.0007326007326,33.4061050879536
1743370436944,17:33:56.944,-1,-1,1854.21245421245,1.98901098901099,33.4061050879536
1743370436963,17:33:56.963,-1,-1,1750.18315018315,1.98461538461538,33.4061050879536
1743370436983,17:33:56.983,-1,-1,1653.47985347985,1.98168498168498,33.4061050879536
1743370437002,17:33:57.002,-1,-1,1561.90476190476,1.98168498168498,33.4061050879536
1743370437022,17:33:57.022,-1,-1,1480.58608058608,1.97875457875458,33.4061050879536
1743370437041,17:33:57.041,-1,-1,1430.76923076923,1.97435897435897,33.4061050879536
1743370437061,17:33:57.061,-1,-1,1402.9304029304,1.97289377289377,33.4061050879536
1743370437080,17:33:57.080,-1,-1,1391.20879120879,1.97142857142857,33.4061050879536
1743370437100,17:33:57.100,-1,-1,1388.27838827839,1.96996336996337,33.4061050879536
1743370437119,17:33:57.119,-1,-1,1373.62637362637,1.96703296703297,33.4061050879536
1743370437139,17:33:57.139,-1,-1,1369.23076923077,1.96410256410256,33.4061050879536
1743370437158,17:33:57.158,-1,-1,1361.90476190476,1.96263736263736,33.4061050879536
1743370437178,17:33:57.178,-1,-1,1346.52014652015,1.96117216117216,33.4061050879536
1743370437197,17:33:57.197,-1,-1,1326.00732600733,1.95970695970696,33.4061050879536
1743370437217,17:33:57.217,-1,-1,1297.4358974359,1.95970695970696,33.4061050879536
1743370437236,17:33:57.236,-1,-1,1275.45787545788,1.95970695970696,33.4061050879536
1743370437256,17:33:57.256,-1,-1,1264.46886446886,1.95970695970696,33.4061050879536
1743370437275,17:33:57.275,-1,-1,1253.47985347985,1.95824175824176,33.4061050879536
1743370437295,17:33:57.295,-1,-1,1229.30402930403,1.95824175824176,33.4061050879536
1743370437314,17:33:57.314,-1,-1,1209.52380952381,1.97142857142857,33.4061050879536
1743370437334,17:33:57.334,-1,-1,1181.68498168498,1.98461538461538,33.4061050879536
1743370437353,17:33:57.353,-1,-1,1154.57875457875,1.99047619047619,33.4111084472388
1743370437373,17:33:57.373,-1,-1,1142.12454212454,1.99047619047619,33.4111084472388
1743370437392,17:33:57.392,-1,-1,1164.10256410256,1.98901098901099,33.4111084472388
1743370437412,17:33:57.412,-1,-1,1189.74358974359,1.98901098901099,33.4111084472388
1743370437431,17:33:57.431,-1,-1,1186.81318681319,1.99047619047619,33.4111084472388
1743370437451,17:33:57.451,-1,-1,1168.49816849817,1.97728937728938,33.4111084472388
1743370437470,17:33:57.470,-1,-1,1137.72893772894,1.97435897435897,33.4111084472388
1743370437490,17:33:57.490,-1,-1,1103.2967032967,1.97289377289377,33.4111084472388
1743370437509,17:33:57.509,-1,-1,1086.44688644689,1.97289377289377,33.4111084472388
1743370437529,17:33:57.529,-1,-1,1086.44688644689,1.97289377289377,33.4111084472388
1743370437548,17:33:57.548,-1,-1,1142.12454212454,1.97289377289377,33.4111084472388
1743370437568,17:33:57.568,-1,-1,1280.58608058608,1.97142857142857,33.4111084472388
1743370437587,17:33:57.587,-1,-1,1515.01831501831,1.96996336996337,33.4111084472388
1743370437607,17:33:57.607,-1,-1,1787.54578754579,1.96849816849817,33.4111084472388
1743370437626,17:33:57.626,-1,-1,2017.58241758242,1.96996336996337,33.4111084472388
1743370437646,17:33:57.646,-1,-1,2164.10256410256,1.97435897435897,33.4111084472388
1743370437665,17:33:57.665,-1,-1,2218.31501831502,1.97582417582418,33.4111084472388
1743370437685,17:33:57.685,-1,-1,2206.59340659341,1.97435897435897,33.4111084472388
1743370437704,17:33:57.704,-1,-1,2151.64835164835,1.97289377289377,33.4111084472388
1743370437724,17:33:57.724,-1,-1,2065.93406593407,1.96996336996337,33.4111084472388
1743370437743,17:33:57.743,-1,-1,1965.56776556777,1.97142857142857,33.4111084472388
1743370437763,17:33:57.763,-1,-1,1857.14285714286,1.97582417582418,33.4111084472388
1743370437782,17:33:57.782,-1,-1,1756.04395604396,1.98168498168498,33.4111084472388
1743370437802,17:33:57.802,-1,-1,1664.46886446886,1.98608058608059,33.4111084472388
1743370437821,17:33:57.821,-1,-1,1586.08058608059,1.98901098901099,33.4111084472388
1743370437841,17:33:57.841,-1,-1,1526.73992673993,1.98901098901099,33.4111084472388
1743370437860,17:33:57.860,-1,-1,1501.0989010989,1.98901098901099,33.4111084472388
1743370437880,17:33:57.880,-1,-1,1496.7032967033,1.98754578754579,33.4111084472388
1743370437899,17:33:57.899,-1,-1,1494.50549450549,1.98461538461538,33.4111084472388
1743370437919,17:33:57.919,-1,-1,1490.10989010989,1.98315018315018,33.4111084472388
1743370437938,17:33:57.938,-1,-1,1467.39926739927,1.98021978021978,33.4111084472388
1743370437958,17:33:57.958,-1,-1,1457.14285714286,1.97875457875458,33.4111084472388
1743370437977,17:33:57.977,-1,-1,1449.81684981685,1.98021978021978,33.4111084472388
1743370437997,17:33:57.997,-1,-1,1435.16483516484,1.98315018315018,33.4111084472388
1743370438016,17:33:58.016,-1,-1,1405.86080586081,1.98901098901099,33.4111084472388
1743370438036,17:33:58.036,-1,-1,1364.83516483516,1.98901098901099,33.4111084472388
1743370438055,17:33:58.055,-1,-1,1313.55311355311,1.99340659340659,33.4111084472388
1743370438075,17:33:58.075,-1,-1,1267.39926739927,2.0007326007326,33.4111084472388
1743370438094,17:33:58.094,-1,-1,1240.29304029304,2.01245421245421,33.4111084472388
1743370438114,17:33:58.114,-1,-1,1217.58241758242,2.01831501831502,33.4111084472388
1743370438133,17:33:58.133,-1,-1,1192.67399267399,2.01978021978022,33.4111084472388
1743370438153,17:33:58.153,-1,-1,1169.96336996337,2.02124542124542,33.4111084472388
1743370438172,17:33:58.172,-1,-1,1158.97435897436,2.02124542124542,33.4111084472388
1743370438192,17:33:58.192,-1,-1,1149.45054945055,2.02124542124542,33.4111084472388
1743370438211,17:33:58.211,-1,-1,1138.46153846154,2.02124542124542,33.4111084472388
1743370438231,17:33:58.231,-1,-1,1138.46153846154,2.02124542124542,33.4111084472388
1743370438250,17:33:58.250,-1,-1,1134.06593406593,2.02417582417582,33.4111084472388
1743370438270,17:33:58.270,-1,-1,1114.28571428571,2.02564102564103,33.4111084472388
1743370438289,17:33:58.289,-1,-1,1099.6336996337,2.03589743589744,33.4111084472388
1743370438309,17:33:58.309,-1,-1,1079.85347985348,2.03882783882784,33.4111084472388
1743370438328,17:33:58.328,-1,-1,1069.59706959707,2.04029304029304,33.4111084472388
1743370438348,17:33:58.348,-1,-1,1105.49450549451,2.04029304029304,33.4061050879536
1743370438367,17:33:58.367,-1,-1,1249.08424908425,2.04029304029304,33.4061050879536
1743370438387,17:33:58.387,-1,-1,1485.71428571429,2.04029304029304,33.4061050879536
1743370438406,17:33:58.406,-1,-1,1761.90476190476,2.04175824175824,33.4061050879536
1743370438426,17:33:58.426,-1,-1,1997.8021978022,2.04468864468864,33.4061050879536
1743370438445,17:33:58.445,-1,-1,2156.77655677656,2.04468864468864,33.4061050879536
1743370438465,17:33:58.465,-1,-1,2246.15384615385,2.04468864468864,33.4061050879536
1743370438484,17:33:58.484,-1,-1,2264.46886446886,2.04761904761905,33.4061050879536
1743370438504,17:33:58.504,-1,-1,2226.37362637363,2.04908424908425,33.4061050879536
1743370438523,17:33:58.523,-1,-1,2156.77655677656,2.04908424908425,33.4061050879536
1743370438543,17:33:58.543,-1,-1,2073.26007326007,2.05201465201465,33.4061050879536
1743370438562,17:33:58.562,-1,-1,1985.34798534799,2.05201465201465,33.4061050879536
1743370438582,17:33:58.582,-1,-1,1904.0293040293,2.05201465201465,33.4061050879536
1743370438601,17:33:58.601,-1,-1,1806.59340659341,2.05201465201465,33.4061050879536
1743370438621,17:33:58.621,-1,-1,1705.49450549451,2.05054945054945,33.4061050879536
1743370438640,17:33:58.640,-1,-1,1620.51282051282,2.04761904761905,33.4061050879536
1743370438660,17:33:58.660,-1,-1,1564.83516483516,2.04615384615385,33.4061050879536
1743370438679,17:33:58.679,-1,-1,1534.06593406593,2.04615384615385,33.4061050879536
1743370438699,17:33:58.699,-1,-1,1522.34432234432,2.04615384615385,33.4061050879536
1743370438718,17:33:58.718,-1,-1,1520.14652014652,2.04615384615385,33.4061050879536
1743370438738,17:33:58.738,-1,-1,1516.48351648352,2.04468864468864,33.4061050879536
1743370438757,17:33:58.757,-1,-1,1504.0293040293,2.04322344322344,33.4061050879536
1743370438777,17:33:58.777,-1,-1,1483.51648351648,2.04468864468864,33.4061050879536
1743370438796,17:33:58.796,-1,-1,1457.87545787546,2.04322344322344,33.4061050879536
1743370438816,17:33:58.816,-1,-1,1422.71062271062,2.04468864468864,33.4061050879536
1743370438835,17:33:58.835,-1,-1,1379.48717948718,2.04468864468864,33.4061050879536
1743370438855,17:33:58.855,-1,-1,1341.39194139194,2.04468864468864,33.4061050879536
1743370438874,17:33:58.874,-1,-1,1296.7032967033,2.04322344322344,33.4061050879536
1743370438894,17:33:58.894,-1,-1,1255.67765567766,2.04322344322344,33.4061050879536
1743370438913,17:33:58.913,-1,-1,1225.64102564103,2.04468864468864,33.4061050879536
1743370438933,17:33:58.933,-1,-1,1184.61538461538,2.04322344322344,33.4061050879536
1743370438952,17:33:58.952,-1,-1,1147.25274725275,2.04029304029304,33.4061050879536
1743370438972,17:33:58.972,-1,-1,1126.00732600733,2.03443223443223,33.4061050879536
1743370438991,17:33:58.991,-1,-1,1116.48351648352,2.03296703296703,33.4061050879536
1743370439011,17:33:59.011,-1,-1,1129.67032967033,2.03296703296703,33.4061050879536
1743370439030,17:33:59.030,-1,-1,1130.40293040293,2.03589743589744,33.4061050879536
1743370439050,17:33:59.050,-1,-1,1117.94871794872,2.03589743589744,33.4061050879536
1743370439069,17:33:59.069,-1,-1,1102.5641025641,2.03882783882784,33.4061050879536
1743370439089,17:33:59.089,-1,-1,1091.57509157509,2.03736263736264,33.4061050879536
1743370439108,17:33:59.108,-1,-1,1099.6336996337,2.03736263736264,33.4061050879536
1743370439128,17:33:59.128,-1,-1,1110.62271062271,2.04029304029304,33.4061050879536
1743370439147,17:33:59.147,-1,-1,1104.0293040293,2.03882783882784,33.4061050879536
1743370439167,17:33:59.167,-1,-1,1148.71794871795,2.03443223443223,33.4061050879536
1743370439186,17:33:59.186,-1,-1,1294.50549450549,2.01831501831502,33.4061050879536
1743370439206,17:33:59.206,-1,-1,1523.80952380952,1.98608058608059,33.4061050879536
1743370439225,17:33:59.225,-1,-1,1781.68498168498,1.96996336996337,33.4061050879536
1743370439245,17:33:59.245,-1,-1,2017.58241758242,1.96263736263736,33.4061050879536
1743370439264,17:33:59.264,-1,-1,2169.96336996337,1.95970695970696,33.4061050879536
1743370439284,17:33:59.284,-1,-1,2236.63003663004,1.95970695970696,33.4061050879536
1743370439303,17:33:59.303,-1,-1,2253.47985347985,1.95970695970696,33.4061050879536
1743370439323,17:33:59.323,-1,-1,2216.84981684982,1.95824175824176,33.4061050879536
1743370439342,17:33:59.342,-1,-1,2147.25274725275,1.95677655677656,33.4111084472388
1743370439362,17:33:59.362,-1,-1,2065.93406593407,1.95384615384615,33.4111084472388
1743370439381,17:33:59.381,-1,-1,1982.41758241758,1.94798534798535,33.4111084472388
1743370439401,17:33:59.401,-1,-1,1906.22710622711,1.94358974358974,33.4111084472388
1743370439420,17:33:59.420,-1,-1,1798.5347985348,1.94065934065934,33.4111084472388
1743370439440,17:33:59.440,-1,-1,1693.04029304029,1.93919413919414,33.4111084472388
1743370439459,17:33:59.459,-1,-1,1616.84981684982,1.93772893772894,33.4111084472388
1743370439479,17:33:59.479,-1,-1,1561.17216117216,1.93479853479853,33.4111084472388
1743370439498,17:33:59.498,-1,-1,1522.34432234432,1.93479853479853,33.4111084472388
1743370439518,17:33:59.518,-1,-1,1495.9706959707,1.93333333333333,33.4111084472388
1743370439537,17:33:59.537,-1,-1,1474.72527472527,1.93186813186813,33.4111084472388
1743370439557,17:33:59.557,-1,-1,1464.46886446886,1.93186813186813,33.4111084472388
1743370439576,17:33:59.576,-1,-1,1465.93406593407,1.93040293040293,33.4111084472388
1743370439596,17:33:59.596,-1,-1,1452.01465201465,1.92893772893773,33.4111084472388
1743370439615,17:33:59.615,-1,-1,1416.11721611722,1.92893772893773,33.4111084472388
1743370439635,17:33:59.635,-1,-1,1376.55677655678,1.92747252747253,33.4111084472388
1743370439654,17:33:59.654,-1,-1,1353.84615384615,1.92600732600733,33.4111084472388
1743370439674,17:33:59.674,-1,-1,1321.61172161172,1.92454212454212,33.4111084472388
1743370439693,17:33:59.693,-1,-1,1279.12087912088,1.92454212454212,33.4111084472388
1743370439713,17:33:59.713,-1,-1,1235.89743589744,1.92307692307692,33.4111084472388
1743370439732,17:33:59.732,-1,-1,1210.25641025641,1.92454212454212,33.4111084472388
1743370439752,17:33:59.752,-1,-1,1186.81318681319,1.92307692307692,33.4111084472388
1743370439771,17:33:59.771,-1,-1,1156.77655677656,1.92307692307692,33.4111084472388
1743370439791,17:33:59.791,-1,-1,1122.34432234432,1.92161172161172,33.4111084472388
1743370439810,17:33:59.810,-1,-1,1104.7619047619,1.92161172161172,33.4111084472388
1743370439830,17:33:59.830,-1,-1,1093.77289377289,1.92014652014652,33.4111084472388
1743370439849,17:33:59.849,-1,-1,1078.38827838828,1.91868131868132,33.4111084472388
1743370439869,17:33:59.869,-1,-1,1074.72527472527,1.91721611721612,33.4111084472388
1743370439888,17:33:59.888,-1,-1,1075.45787545788,1.91575091575092,33.4111084472388
1743370439908,17:33:59.908,-1,-1,1070.32967032967,1.91868131868132,33.4111084472388
1743370439927,17:33:59.927,-1,-1,1052.01465201465,1.92161172161172,33.4111084472388
1743370439947,17:33:59.947,-1,-1,1053.47985347985,1.92454212454212,33.4111084472388
1743370439966,17:33:59.966,-1,-1,1060.80586080586,1.92600732600733,33.4111084472388
1743370439986,17:33:59.986,-1,-1,1083.51648351648,1.92454212454212,33.4111084472388
1743370440005,17:34:00.005,-1,-1,1173.62637362637,1.92600732600733,33.4111084472388
1743370440025,17:34:00.025,-1,-1,1353.11355311355,1.92893772893773,33.4111084472388
1743370440044,17:34:00.044,-1,-1,1589.74358974359,1.93333333333333,33.4111084472388
1743370440064,17:34:00.064,-1,-1,1821.24542124542,1.93479853479853,33.4111084472388
1743370440083,17:34:00.083,-1,-1,1989.74358974359,1.93479853479853,33.4111084472388
1743370440103,17:34:00.103,-1,-1,2082.78388278388,1.93333333333333,33.4111084472388
1743370440122,17:34:00.122,-1,-1,2098.9010989011,1.93040293040293,33.4111084472388
1743370440142,17:34:00.142,-1,-1,2060.80586080586,1.92307692307692,33.4111084472388
1743370440161,17:34:00.161,-1,-1,1995.6043956044,1.91721611721612,33.4111084472388
1743370440181,17:34:00.181,-1,-1,1926.00732600733,1.90989010989011,33.4111084472388
1743370440200,17:34:00.200,-1,-1,1863.73626373626,1.90842490842491,33.4111084472388
1743370440220,17:34:00.220,-1,-1,1779.48717948718,1.90842490842491,33.4111084472388
1743370440239,17:34:00.239,-1,-1,1664.46886446886,1.90695970695971,33.4111084472388
1743370440259,17:34:00.259,-1,-1,1562.63736263736,1.90842490842491,33.4111084472388
1743370440278,17:34:00.278,-1,-1,1496.7032967033,1.90842490842491,33.4111084472388
1743370440298,17:34:00.298,-1,-1,1454.21245421245,1.90695970695971,33.4111084472388
1743370440317,17:34:00.317,-1,-1,1417.58241758242,1.90695970695971,33.4111084472388
1743370440337,17:34:00.337,-1,-1,1405.86080586081,1.90695970695971,33.4261184901698
1743370440356,17:34:00.356,-1,-1,1410.25641025641,1.90695970695971,33.4261184901698
1743370440376,17:34:00.376,-1,-1,1422.71062271062,1.90695970695971,33.4261184901698
1743370440395,17:34:00.395,-1,-1,1421.24542124542,1.90695970695971,33.4261184901698
1743370440415,17:34:00.415,-1,-1,1405.86080586081,1.9054945054945,33.4261184901698
1743370440434,17:34:00.434,-1,-1,1383.15018315018,1.9025641025641,33.4261184901698
1743370440454,17:34:00.454,-1,-1,1344.32234432234,1.9010989010989,33.4261184901698
1743370440473,17:34:00.473,-1,-1,1304.0293040293,1.9010989010989,33.4261184901698
1743370440493,17:34:00.493,-1,-1,1270.32967032967,1.9010989010989,33.4261184901698
1743370440512,17:34:00.512,-1,-1,1252.74725274725,1.9025641025641,33.4261184901698
1743370440532,17:34:00.532,-1,-1,1237.36263736264,1.9040293040293,33.4261184901698
1743370440551,17:34:00.551,-1,-1,1209.52380952381,1.9040293040293,33.4261184901698
1743370440571,17:34:00.571,-1,-1,1178.75457875458,1.9054945054945,33.4261184901698
1743370440590,17:34:00.590,-1,-1,1157.50915750916,1.9054945054945,33.4261184901698
1743370440610,17:34:00.610,-1,-1,1143.58974358974,1.9054945054945,33.4261184901698
1743370440629,17:34:00.629,-1,-1,1121.61172161172,1.9040293040293,33.4261184901698
1743370440649,17:34:00.649,-1,-1,1092.30769230769,1.8996336996337,33.4261184901698
1743370440668,17:34:00.668,-1,-1,1066.66666666667,1.8996336996337,33.4261184901698
1743370440688,17:34:00.688,-1,-1,1041.75824175824,1.8981684981685,33.4261184901698
1743370440707,17:34:00.707,-1,-1,1031.50183150183,1.8981684981685,33.4261184901698
1743370440727,17:34:00.727,-1,-1,1057.14285714286,1.8981684981685,33.4261184901698
1743370440746,17:34:00.746,-1,-1,1175.09157509158,1.8981684981685,33.4261184901698
1743370440766,17:34:00.766,-1,-1,1368.49816849817,1.8981684981685,33.4261184901698
1743370440785,17:34:00.785,-1,-1,1580.21978021978,1.8981684981685,33.4261184901698
1743370440805,17:34:00.805,-1,-1,1761.17216117216,1.8967032967033,33.4261184901698
1743370440824,17:34:00.824,-1,-1,1887.17948717949,1.89523809523809,33.4261184901698
1743370440844,17:34:00.844,-1,-1,1920.14652014652,1.8967032967033,33.4261184901698
1743370440863,17:34:00.863,-1,-1,1890.10989010989,1.89523809523809,33.4261184901698
1743370440883,17:34:00.883,-1,-1,1841.75824175824,1.89523809523809,33.4261184901698
1743370440902,17:34:00.902,-1,-1,1784.61538461538,1.89377289377289,33.4261184901698
1743370440922,17:34:00.922,-1,-1,1722.34432234432,1.89377289377289,33.4261184901698
1743370440941,17:34:00.941,-1,-1,1654.21245421245,1.89377289377289,33.4261184901698
1743370440961,17:34:00.961,-1,-1,1583.88278388278,1.89377289377289,33.4261184901698
1743370440980,17:34:00.980,-1,-1,1497.4358974359,1.89230769230769,33.4261184901698
1743370441000,17:34:01.000,-1,-1,1406.59340659341,1.89084249084249,33.4261184901698
1743370441019,17:34:01.019,-1,-1,1350.18315018315,1.89084249084249,33.4261184901698
1743370441039,17:34:01.039,-1,-1,1333.33333333333,1.89084249084249,33.4261184901698
1743370441058,17:34:01.058,-1,-1,1336.99633699634,1.88937728937729,33.4261184901698
1743370441078,17:34:01.078,-1,-1,1357.50915750916,1.88937728937729,33.4261184901698
1743370441097,17:34:01.097,-1,-1,1370.69597069597,1.88791208791209,33.4261184901698
1743370441117,17:34:01.117,-1,-1,1361.90476190476,1.88791208791209,33.4261184901698
1743370441136,17:34:01.136,-1,-1,1337.72893772894,1.88644688644689,33.4261184901698
1743370441156,17:34:01.156,-1,-1,1308.42490842491,1.88644688644689,33.4261184901698
1743370441175,17:34:01.175,-1,-1,1279.12087912088,1.88644688644689,33.4261184901698
1743370441195,17:34:01.195,-1,-1,1244.68864468864,1.88644688644689,33.4261184901698
1743370441214,17:34:01.214,-1,-1,1221.97802197802,1.88498168498169,33.4261184901698
1743370441234,17:34:01.234,-1,-1,1193.40659340659,1.88498168498169,33.4261184901698
1743370441253,17:34:01.253,-1,-1,1156.04395604396,1.88498168498169,33.4261184901698
1743370441273,17:34:01.273,-1,-1,1125.27472527473,1.88644688644689,33.4261184901698
1743370441292,17:34:01.292,-1,-1,1100.3663003663,1.88791208791209,33.4261184901698
1743370441312,17:34:01.312,-1,-1,1072.52747252747,1.88937728937729,33.4261184901698
1743370441331,17:34:01.331,-1,-1,1048.35164835165,1.88644688644689,33.4161118007032
1743370441351,17:34:01.351,-1,-1,1031.50183150183,1.88644688644689,33.4161118007032
1743370441370,17:34:01.370,-1,-1,1032.23443223443,1.88644688644689,33.4161118007032
1743370441390,17:34:01.390,-1,-1,1041.75824175824,1.88644688644689,33.4161118007032
1743370441409,17:34:01.409,-1,-1,1035.89743589744,1.88644688644689,33.4161118007032
1743370441429,17:34:01.429,-1,-1,1021.24542124542,1.88791208791209,33.4161118007032
1743370441448,17:34:01.448,-1,-1,997.802197802198,1.88644688644689,33.4161118007032
1743370441468,17:34:01.468,-1,-1,975.091575091575,1.88791208791209,33.4161118007032
1743370441487,17:34:01.487,-1,-1,978.754578754579,1.88791208791209,33.4161118007032
1743370441507,17:34:01.507,-1,-1,1029.30402930403,1.88791208791209,33.4161118007032
1743370441526,17:34:01.526,-1,-1,1170.69597069597,1.88937728937729,33.4161118007032
1743370441546,17:34:01.546,-1,-1,1365.56776556777,1.88791208791209,33.4161118007032
1743370441565,17:34:01.565,-1,-1,1566.30036630037,1.88791208791209,33.4161118007032
1743370441585,17:34:01.585,-1,-1,1747.25274725275,1.88937728937729,33.4161118007032
1743370441604,17:34:01.604,-1,-1,1843.95604395604,1.88791208791209,33.4161118007032
1743370441624,17:34:01.624,-1,-1,1872.52747252747,1.88791208791209,33.4161118007032
1743370441643,17:34:01.643,-1,-1,1868.86446886447,1.88791208791209,33.4161118007032
1743370441663,17:34:01.663,-1,-1,1824.90842490842,1.88791208791209,33.4161118007032
1743370441682,17:34:01.682,-1,-1,1755.31135531136,1.88937728937729,33.4161118007032
1743370441702,17:34:01.702,-1,-1,1698.9010989011,1.88791208791209,33.4161118007032
1743370441721,17:34:01.721,-1,-1,1630.03663003663,1.88791208791209,33.4161118007032
1743370441741,17:34:01.741,-1,-1,1556.04395604396,1.88791208791209,33.4161118007032
1743370441760,17:34:01.760,-1,-1,1472.52747252747,1.88791208791209,33.4161118007032
1743370441780,17:34:01.780,-1,-1,1380.21978021978,1.88791208791209,33.4161118007032
1743370441799,17:34:01.799,-1,-1,1311.35531135531,1.88644688644689,33.4161118007032
1743370441819,17:34:01.819,-1,-1,1276.92307692308,1.88644688644689,33.4161118007032
1743370441838,17:34:01.838,-1,-1,1265.20146520147,1.88498168498169,33.4161118007032
1743370441858,17:34:01.858,-1,-1,1268.86446886447,1.88498168498169,33.4161118007032
1743370441877,17:34:01.877,-1,-1,1293.04029304029,1.88351648351648,33.4161118007032
1743370441897,17:34:01.897,-1,-1,1298.9010989011,1.88351648351648,33.4161118007032
1743370441916,17:34:01.916,-1,-1,1274.72527472527,1.88205128205128,33.4161118007032
1743370441936,17:34:01.936,-1,-1,1259.34065934066,1.88205128205128,33.4161118007032
1743370441955,17:34:01.955,-1,-1,1227.83882783883,1.88205128205128,33.4161118007032
1743370441975,17:34:01.975,-1,-1,1197.8021978022,1.88351648351648,33.4161118007032
1743370441994,17:34:01.994,-1,-1,1161.90476190476,1.88498168498169,33.4161118007032
1743370442014,17:34:02.014,-1,-1,1127.47252747253,1.88644688644689,33.4161118007032
1743370442033,17:34:02.033,-1,-1,1093.77289377289,1.88791208791209,33.4161118007032
1743370442053,17:34:02.053,-1,-1,1068.13186813187,1.89084249084249,33.4161118007032
1743370442072,17:34:02.072,-1,-1,1039.56043956044,1.89377289377289,33.4161118007032
1743370442092,17:34:02.092,-1,-1,1019.78021978022,1.89523809523809,33.4161118007032
1743370442111,17:34:02.111,-1,-1,1008.05860805861,1.8967032967033,33.4161118007032
1743370442131,17:34:02.131,-1,-1,1003.663003663,1.8981684981685,33.4161118007032
1743370442150,17:34:02.150,-1,-1,1002.9304029304,1.9010989010989,33.4161118007032
1743370442170,17:34:02.170,-1,-1,1010.25641025641,1.9025641025641,33.4161118007032
1743370442189,17:34:02.189,-1,-1,1006.59340659341,1.90695970695971,33.4161118007032
1743370442209,17:34:02.209,-1,-1,985.347985347985,1.90989010989011,33.4161118007032
1743370442228,17:34:02.228,-1,-1,963.369963369963,1.91135531135531,33.4161118007032
1743370442248,17:34:02.248,-1,-1,958.241758241758,1.91282051282051,33.4161118007032
1743370442267,17:34:02.267,-1,-1,966.300366300366,1.91575091575092,33.4161118007032
1743370442287,17:34:02.287,-1,-1,1005.86080586081,1.91721611721612,33.4161118007032
1743370442306,17:34:02.306,-1,-1,1109.89010989011,1.91721611721612,33.4161118007032
1743370442326,17:34:02.326,-1,-1,1293.04029304029,1.91721611721612,33.4311218261719
1743370442345,17:34:02.345,-1,-1,1498.9010989011,1.91721611721612,33.4311218261719
1743370442365,17:34:02.365,-1,-1,1684.98168498168,1.91575091575092,33.4311218261719
1743370442384,17:34:02.384,-1,-1,1810.25641025641,1.91428571428571,33.4311218261719
1743370442404,17:34:02.404,-1,-1,1873.26007326007,1.91428571428571,33.4311218261719
1743370442423,17:34:02.423,-1,-1,1892.30769230769,1.91282051282051,33.4311218261719
1743370442443,17:34:02.443,-1,-1,1876.92307692308,1.91282051282051,33.4311218261719
1743370442462,17:34:02.462,-1,-1,1828.57142857143,1.90989010989011,33.4311218261719
1743370442482,17:34:02.482,-1,-1,1773.62637362637,1.90842490842491,33.4311218261719
1743370442501,17:34:02.501,-1,-1,1718.68131868132,1.90842490842491,33.4311218261719
1743370442521,17:34:02.521,-1,-1,1658.60805860806,1.90695970695971,33.4311218261719
1743370442540,17:34:02.540,-1,-1,1582.41758241758,1.9054945054945,33.4311218261719
1743370442560,17:34:02.560,-1,-1,1492.30769230769,1.9025641025641,33.4311218261719
1743370442579,17:34:02.579,-1,-1,1418.31501831502,1.9010989010989,33.4311218261719
1743370442599,17:34:02.599,-1,-1,1365.56776556777,1.8996336996337,33.4311218261719
1743370442618,17:34:02.618,-1,-1,1328.93772893773,1.8981684981685,33.4311218261719
1743370442638,17:34:02.638,-1,-1,1307.69230769231,1.8967032967033,33.4311218261719
1743370442657,17:34:02.657,-1,-1,1282.78388278388,1.89523809523809,33.4311218261719
1743370442677,17:34:02.677,-1,-1,1274.72527472527,1.89377289377289,33.4311218261719
1743370442696,17:34:02.696,-1,-1,1265.20146520147,1.89377289377289,33.4311218261719
1743370442716,17:34:02.716,-1,-1,1257.14285714286,1.89377289377289,33.4311218261719
1743370442735,17:34:02.735,-1,-1,1242.49084249084,1.89230769230769,33.4311218261719
1743370442755,17:34:02.755,-1,-1,1216.11721611722,1.89230769230769,33.4311218261719
1743370442774,17:34:02.774,-1,-1,1189.74358974359,1.89084249084249,33.4311218261719
1743370442794,17:34:02.794,-1,-1,1153.11355311355,1.89084249084249,33.4311218261719
1743370442813,17:34:02.813,-1,-1,1117.21611721612,1.88937728937729,33.4311218261719
1743370442833,17:34:02.833,-1,-1,1089.37728937729,1.88937728937729,33.4311218261719
1743370442852,17:34:02.852,-1,-1,1069.59706959707,1.88791208791209,33.4311218261719
1743370442872,17:34:02.872,-1,-1,1048.35164835165,1.88791208791209,33.4311218261719
1743370442891,17:34:02.891,-1,-1,1035.89743589744,1.88644688644689,33.4311218261719
1743370442911,17:34:02.911,-1,-1,1043.22344322344,1.88644688644689,33.4311218261719
1743370442930,17:34:02.930,-1,-1,1049.08424908425,1.88644688644689,33.4311218261719
1743370442950,17:34:02.950,-1,-1,1044.68864468864,1.88644688644689,33.4311218261719
1743370442969,17:34:02.969,-1,-1,1040.29304029304,1.88498168498169,33.4311218261719
1743370442989,17:34:02.989,-1,-1,1030.76923076923,1.88351648351648,33.4311218261719
1743370443008,17:34:03.008,-1,-1,1015.38461538462,1.88351648351648,33.4311218261719
1743370443028,17:34:03.028,-1,-1,1002.1978021978,1.88351648351648,33.4311218261719
1743370443047,17:34:03.047,-1,-1,994.139194139194,1.88205128205128,33.4311218261719
1743370443067,17:34:03.067,-1,-1,979.487179487179,1.88205128205128,33.4311218261719
1743370443086,17:34:03.086,-1,-1,965.567765567765,1.88058608058608,33.4311218261719
1743370443106,17:34:03.106,-1,-1,989.010989010989,1.88058608058608,33.4311218261719
1743370443125,17:34:03.125,-1,-1,1083.51648351648,1.88058608058608,33.4311218261719
1743370443145,17:34:03.145,-1,-1,1241.02564102564,1.88058608058608,33.4311218261719
1743370443164,17:34:03.164,-1,-1,1435.89743589744,1.88058608058608,33.4311218261719
1743370443184,17:34:03.184,-1,-1,1621.97802197802,1.87912087912088,33.4311218261719
1743370443203,17:34:03.203,-1,-1,1756.04395604396,1.87912087912088,33.4311218261719
1743370443223,17:34:03.223,-1,-1,1835.89743589744,1.87912087912088,33.4311218261719
1743370443242,17:34:03.242,-1,-1,1859.34065934066,1.87912087912088,33.4311218261719
1743370443262,17:34:03.262,-1,-1,1843.95604395604,1.87765567765568,33.4311218261719
1743370443281,17:34:03.281,-1,-1,1817.58241758242,1.87765567765568,33.4311218261719
1743370443301,17:34:03.301,-1,-1,1777.28937728938,1.87765567765568,33.4311218261719
1743370443320,17:34:03.320,-1,-1,1741.39194139194,1.87765567765568,33.4211151483469
1743370443340,17:34:03.340,-1,-1,1701.8315018315,1.87619047619048,33.4211151483469
1743370443359,17:34:03.359,-1,-1,1627.83882783883,1.87765567765568,33.4211151483469
1743370443379,17:34:03.379,-1,-1,1541.39194139194,1.87619047619048,33.4211151483469
1743370443398,17:34:03.398,-1,-1,1457.14285714286,1.87765567765568,33.4211151483469
1743370443418,17:34:03.418,-1,-1,1385.34798534799,1.87765567765568,33.4211151483469
1743370443437,17:34:03.437,-1,-1,1338.46153846154,1.87765567765568,33.4211151483469
1743370443457,17:34:03.457,-1,-1,1323.07692307692,1.87765567765568,33.4211151483469
1743370443476,17:34:03.476,-1,-1,1324.54212454212,1.87765567765568,33.4211151483469
1743370443496,17:34:03.496,-1,-1,1318.68131868132,1.87765567765568,33.4211151483469
1743370443515,17:34:03.515,-1,-1,1306.22710622711,1.87765567765568,33.4211151483469
1743370443535,17:34:03.535,-1,-1,1282.05128205128,1.87765567765568,33.4211151483469
1743370443554,17:34:03.554,-1,-1,1249.81684981685,1.87619047619048,33.4211151483469
1743370443574,17:34:03.574,-1,-1,1230.76923076923,1.87765567765568,33.4211151483469
1743370443593,17:34:03.593,-1,-1,1192.67399267399,1.87765567765568,33.4211151483469
1743370443613,17:34:03.613,-1,-1,1150.91575091575,1.87912087912088,33.4211151483469
1743370443632,17:34:03.632,-1,-1,1115.75091575092,1.87912087912088,33.4211151483469
1743370443652,17:34:03.652,-1,-1,1090.10989010989,1.88058608058608,33.4211151483469
1743370443671,17:34:03.671,-1,-1,1060.07326007326,1.88205128205128,33.4211151483469
1743370443691,17:34:03.691,-1,-1,1055.67765567766,1.88498168498169,33.4211151483469
1743370443710,17:34:03.710,-1,-1,1036.63003663004,1.88791208791209,33.4211151483469
1743370443730,17:34:03.730,-1,-1,1016.11721611722,1.89377289377289,33.4211151483469
1743370443749,17:34:03.749,-1,-1,1005.86080586081,1.8981684981685,33.4211151483469
1743370443769,17:34:03.769,-1,-1,1005.12820512821,1.9054945054945,33.4211151483469
1743370443788,17:34:03.788,-1,-1,1005.12820512821,1.90989010989011,33.4211151483469
1743370443808,17:34:03.808,-1,-1,1024.17582417582,1.91135531135531,33.4211151483469
1743370443827,17:34:03.827,-1,-1,1031.50183150183,1.91282051282051,33.4211151483469
1743370443847,17:34:03.847,-1,-1,1026.37362637363,1.91428571428571,33.4211151483469
1743370443866,17:34:03.866,-1,-1,1011.72161172161,1.91575091575092,33.4211151483469
1743370443886,17:34:03.886,-1,-1,1017.58241758242,1.91721611721612,33.4211151483469
1743370443905,17:34:03.905,-1,-1,1021.24542124542,1.92014652014652,33.4211151483469
1743370443925,17:34:03.925,-1,-1,1019.78021978022,1.92307692307692,33.4211151483469
1743370443944,17:34:03.944,-1,-1,1015.38461538462,1.92307692307692,33.4211151483469
1743370443964,17:34:03.964,-1,-1,1062.27106227106,1.92454212454212,33.4211151483469
1743370443983,17:34:03.983,-1,-1,1199.2673992674,1.92454212454212,33.4211151483469
1743370444003,17:34:04.003,-1,-1,1377.28937728938,1.92454212454212,33.4211151483469
1743370444022,17:34:04.022,-1,-1,1534.06593406593,1.92454212454212,33.4211151483469
1743370444042,17:34:04.042,-1,-1,1659.34065934066,1.92600732600733,33.4211151483469
1743370444061,17:34:04.061,-1,-1,1734.06593406593,1.92600732600733,33.4211151483469
1743370444081,17:34:04.081,-1,-1,1766.30036630037,1.92600732600733,33.4211151483469
1743370444101,17:34:04.100,-1,-1,1764.10256410256,1.92600732600733,33.4211151483469
1743370444120,17:34:04.120,-1,-1,1736.26373626374,1.92747252747253,33.4211151483469
1743370444140,17:34:04.139,-1,-1,1693.04029304029,1.92600732600733,33.4211151483469
1743370444159,17:34:04.159,-1,-1,1652.01465201465,1.92747252747253,33.4211151483469
1743370444179,17:34:04.178,-1,-1,1594.13919413919,1.92893772893773,33.4211151483469
1743370444198,17:34:04.198,-1,-1,1519.41391941392,1.93040293040293,33.4211151483469
1743370444218,17:34:04.218,-1,-1,1424.90842490842,1.93186813186813,33.4211151483469
1743370444237,17:34:04.237,-1,-1,1345.05494505494,1.93333333333333,33.4211151483469
1743370444257,17:34:04.257,-1,-1,1292.30769230769,1.93479853479853,33.4211151483469
1743370444276,17:34:04.276,-1,-1,1279.12087912088,1.93772893772894,33.4211151483469
1743370444296,17:34:04.296,-1,-1,1287.91208791209,1.93919413919414,33.4211151483469
1743370444315,17:34:04.315,-1,-1,1290.10989010989,1.93919413919414,33.4311218261719
1743370444335,17:34:04.335,-1,-1,1295.9706959707,1.93919413919414,33.4311218261719
1743370444354,17:34:04.354,-1,-1,1302.5641025641,1.93772893772894,33.4311218261719
1743370444374,17:34:04.374,-1,-1,1293.77289377289,1.93626373626374,33.4311218261719
1743370444393,17:34:04.393,-1,-1,1279.12087912088,1.93772893772894,33.4311218261719
1743370444413,17:34:04.413,-1,-1,1257.14285714286,1.93772893772894,33.4311218261719
1743370444432,17:34:04.432,-1,-1,1225.64102564103,1.93772893772894,33.4311218261719
1743370444452,17:34:04.452,-1,-1,1187.54578754579,1.93772893772894,33.4311218261719
1743370444471,17:34:04.471,-1,-1,1156.77655677656,1.93772893772894,33.4311218261719
1743370444491,17:34:04.491,-1,-1,1134.06593406593,1.93919413919414,33.4311218261719
1743370444510,17:34:04.510,-1,-1,1115.01831501831,1.94065934065934,33.4311218261719
1743370444530,17:34:04.530,-1,-1,1098.1684981685,1.94212454212454,33.4311218261719
1743370444549,17:34:04.549,-1,-1,1085.71428571429,1.94212454212454,33.4311218261719
1743370444569,17:34:04.569,-1,-1,1073.99267399267,1.94212454212454,33.4311218261719
1743370444588,17:34:04.588,-1,-1,1071.79487179487,1.94358974358974,33.4311218261719
1743370444608,17:34:04.608,-1,-1,1063.00366300366,1.94212454212454,33.4311218261719
1743370444627,17:34:04.627,-1,-1,1055.67765567766,1.94212454212454,33.4311218261719
1743370444647,17:34:04.647,-1,-1,1054.94505494505,1.94358974358974,33.4311218261719
1743370444666,17:34:04.666,-1,-1,1051.28205128205,1.94505494505494,33.4311218261719
1743370444686,17:34:04.686,-1,-1,1046.15384615385,1.94358974358974,33.4311218261719
1743370444705,17:34:04.705,-1,-1,1063.73626373626,1.94358974358974,33.4311218261719
1743370444725,17:34:04.725,-1,-1,1137.72893772894,1.94212454212454,33.4311218261719
1743370444744,17:34:04.744,-1,-1,1291.57509157509,1.94212454212454,33.4311218261719
1743370444764,17:34:04.764,-1,-1,1478.38827838828,1.94212454212454,33.4311218261719
1743370444783,17:34:04.783,-1,-1,1636.63003663004,1.94065934065934,33.4311218261719
1743370444803,17:34:04.803,-1,-1,1746.52014652015,1.93919413919414,33.4311218261719
1743370444822,17:34:04.822,-1,-1,1800.7326007326,1.93919413919414,33.4311218261719
1743370444842,17:34:04.842,-1,-1,1794.87179487179,1.93772893772894,33.4311218261719
1743370444861,17:34:04.861,-1,-1,1774.35897435897,1.93772893772894,33.4311218261719
1743370444881,17:34:04.881,-1,-1,1727.47252747253,1.93772893772894,33.4311218261719
1743370444900,17:34:04.900,-1,-1,1675.45787545788,1.93772893772894,33.4311218261719
1743370444920,17:34:04.920,-1,-1,1615.38461538462,1.93919413919414,33.4311218261719
1743370444939,17:34:04.939,-1,-1,1556.04395604396,1.93919413919414,33.4311218261719
1743370444959,17:34:04.959,-1,-1,1479.85347985348,1.93919413919414,33.4311218261719
1743370444978,17:34:04.978,-1,-1,1406.59340659341,1.94065934065934,33.4311218261719
1743370444998,17:34:04.998,-1,-1,1361.17216117216,1.94065934065934,33.4311218261719
1743370445017,17:34:05.017,-1,-1,1334.79853479853,1.94065934065934,33.4311218261719
1743370445037,17:34:05.037,-1,-1,1329.67032967033,1.94065934065934,33.4311218261719
1743370445056,17:34:05.056,-1,-1,1341.39194139194,1.94065934065934,33.4311218261719
1743370445076,17:34:05.076,-1,-1,1354.57875457875,1.94065934065934,33.4311218261719
1743370445095,17:34:05.095,-1,-1,1354.57875457875,1.94212454212454,33.4311218261719
1743370445115,17:34:05.115,-1,-1,1354.57875457875,1.94212454212454,33.4311218261719
1743370445134,17:34:05.134,-1,-1,1346.52014652015,1.94065934065934,33.4311218261719
1743370445154,17:34:05.154,-1,-1,1327.47252747253,1.94212454212454,33.4311218261719
1743370445173,17:34:05.173,-1,-1,1289.37728937729,1.94212454212454,33.4311218261719
1743370445193,17:34:05.193,-1,-1,1246.15384615385,1.94065934065934,33.4311218261719
1743370445212,17:34:05.212,-1,-1,1205.12820512821,1.94065934065934,33.4311218261719
1743370445232,17:34:05.232,-1,-1,1179.48717948718,1.94065934065934,33.4311218261719
1743370445251,17:34:05.251,-1,-1,1156.04395604396,1.94065934065934,33.4311218261719
1743370445271,17:34:05.271,-1,-1,1131.13553113553,1.94065934065934,33.4311218261719
1743370445290,17:34:05.290,-1,-1,1103.2967032967,1.94065934065934,33.4311218261719
1743370445310,17:34:05.310,-1,-1,1086.44688644689,1.94065934065934,33.4261184901698
1743370445329,17:34:05.329,-1,-1,1085.71428571429,1.94065934065934,33.4261184901698
1743370445349,17:34:05.349,-1,-1,1096.7032967033,1.94065934065934,33.4261184901698
1743370445368,17:34:05.368,-1,-1,1093.77289377289,1.93919413919414,33.4261184901698
1743370445388,17:34:05.388,-1,-1,1077.65567765568,1.93919413919414,33.4261184901698
1743370445407,17:34:05.407,-1,-1,1065.93406593407,1.93919413919414,33.4261184901698
1743370445427,17:34:05.427,-1,-1,1067.39926739927,1.93919413919414,33.4261184901698
1743370445446,17:34:05.446,-1,-1,1058.60805860806,1.93919413919414,33.4261184901698
1743370445466,17:34:05.466,-1,-1,1042.49084249084,1.93919413919414,33.4261184901698
1743370445485,17:34:05.485,-1,-1,1049.08424908425,1.93919413919414,33.4261184901698
1743370445505,17:34:05.505,-1,-1,1094.50549450549,1.93919413919414,33.4261184901698
1743370445524,17:34:05.524,-1,-1,1210.98901098901,1.93772893772894,33.4261184901698
1743370445544,17:34:05.544,-1,-1,1398.5347985348,1.93626373626374,33.4261184901698
1743370445563,17:34:05.563,-1,-1,1605.12820512821,1.93333333333333,33.4261184901698
1743370445583,17:34:05.583,-1,-1,1787.54578754579,1.93333333333333,33.4261184901698
1743370445602,17:34:05.602,-1,-1,1917.21611721612,1.93186813186813,33.4261184901698
1743370445622,17:34:05.622,-1,-1,1983.88278388278,1.93186813186813,33.4261184901698
1743370445641,17:34:05.641,-1,-1,2007.32600732601,1.93186813186813,33.4261184901698
1743370445661,17:34:05.661,-1,-1,1982.41758241758,1.93333333333333,33.4261184901698
1743370445680,17:34:05.680,-1,-1,1925.27472527473,1.93186813186813,33.4261184901698
1743370445700,17:34:05.700,-1,-1,1863.73626373626,1.93186813186813,33.4261184901698
1743370445719,17:34:05.719,-1,-1,1802.9304029304,1.93186813186813,33.4261184901698
1743370445739,17:34:05.739,-1,-1,1736.99633699634,1.93186813186813,33.4261184901698
1743370445758,17:34:05.758,-1,-1,1668.86446886447,1.93040293040293,33.4261184901698
1743370445778,17:34:05.778,-1,-1,1597.8021978022,1.93040293040293,33.4261184901698
1743370445797,17:34:05.797,-1,-1,1536.26373626374,1.93040293040293,33.4261184901698
1743370445817,17:34:05.817,-1,-1,1493.77289377289,1.93186813186813,33.4261184901698
1743370445836,17:34:05.836,-1,-1,1468.86446886447,1.93040293040293,33.4261184901698
1743370445856,17:34:05.856,-1,-1,1459.34065934066,1.93040293040293,33.4261184901698
1743370445875,17:34:05.875,-1,-1,1458.60805860806,1.93040293040293,33.4261184901698
1743370445895,17:34:05.895,-1,-1,1467.39926739927,1.93040293040293,33.4261184901698
1743370445914,17:34:05.914,-1,-1,1463.73626373626,1.93040293040293,33.4261184901698
1743370445934,17:34:05.934,-1,-1,1440.29304029304,1.93040293040293,33.4261184901698
1743370445953,17:34:05.953,-1,-1,1397.0695970696,1.93040293040293,33.4261184901698
1743370445973,17:34:05.973,-1,-1,1364.83516483516,1.93040293040293,33.4261184901698
1743370445992,17:34:05.992,-1,-1,1329.67032967033,1.93040293040293,33.4261184901698
1743370446012,17:34:06.012,-1,-1,1283.51648351648,1.93040293040293,33.4261184901698
1743370446031,17:34:06.031,-1,-1,1247.61904761905,1.93040293040293,33.4261184901698
1743370446051,17:34:06.051,-1,-1,1219.04761904762,1.92893772893773,33.4261184901698
1743370446070,17:34:06.070,-1,-1,1194.13919413919,1.92893772893773,33.4261184901698
1743370446090,17:34:06.090,-1,-1,1172.16117216117,1.92893772893773,33.4261184901698
1743370446109,17:34:06.109,-1,-1,1144.32234432234,1.92893772893773,33.4261184901698
1743370446129,17:34:06.129,-1,-1,1126.00732600733,1.92893772893773,33.4261184901698
1743370446148,17:34:06.148,-1,-1,1129.67032967033,1.92893772893773,33.4261184901698
1743370446168,17:34:06.168,-1,-1,1139.19413919414,1.92893772893773,33.4261184901698
1743370446187,17:34:06.187,-1,-1,1141.39194139194,1.92747252747253,33.4261184901698
1743370446207,17:34:06.207,-1,-1,1126.73992673993,1.92747252747253,33.4261184901698
1743370446226,17:34:06.226,-1,-1,1114.28571428571,1.92893772893773,33.4261184901698
1743370446246,17:34:06.246,-1,-1,1101.8315018315,1.92893772893773,33.4261184901698
1743370446265,17:34:06.265,-1,-1,1086.44688644689,1.92893772893773,33.4261184901698
1743370446285,17:34:06.285,-1,-1,1079.12087912088,1.92747252747253,33.4261184901698
1743370446304,17:34:06.304,-1,-1,1069.59706959707,1.92747252747253,33.4261184901698
1743370446324,17:34:06.324,-1,-1,1127.47252747253,1.92747252747253,33.4261184901698
1743370446343,17:34:06.343,-1,-1,1280.58608058608,1.92747252747253,33.4261184901698
1743370446363,17:34:06.363,-1,-1,1495.9706959707,1.92747252747253,33.4261184901698
1743370446382,17:34:06.382,-1,-1,1723.07692307692,1.92747252747253,33.4261184901698
1743370446402,17:34:06.402,-1,-1,1920.14652014652,1.92747252747253,33.4261184901698
1743370446421,17:34:06.421,-1,-1,2061.53846153846,1.92747252747253,33.4261184901698
1743370446441,17:34:06.441,-1,-1,2132.60073260073,1.92747252747253,33.4261184901698
1743370446460,17:34:06.460,-1,-1,2141.39194139194,1.92747252747253,33.4261184901698
1743370446480,17:34:06.480,-1,-1,2115.75091575092,1.92747252747253,33.4261184901698
1743370446499,17:34:06.499,-1,-1,2072.52747252747,1.92747252747253,33.4261184901698
1743370446519,17:34:06.519,-1,-1,2016.11721611722,1.92747252747253,33.4261184901698
1743370446538,17:34:06.538,-1,-1,1948.71794871795,1.92747252747253,33.4261184901698
1743370446558,17:34:06.558,-1,-1,1867.39926739927,1.92747252747253,33.4261184901698
1743370446577,17:34:06.577,-1,-1,1763.36996336996,1.92747252747253,33.4261184901698
1743370446597,17:34:06.597,-1,-1,1654.21245421245,1.92747252747253,33.4261184901698
1743370446616,17:34:06.616,-1,-1,1575.82417582418,1.92600732600733,33.4261184901698
1743370446636,17:34:06.636,-1,-1,1525.27472527473,1.92600732600733,33.4261184901698
1743370446655,17:34:06.655,-1,-1,1513.55311355311,1.92454212454212,33.4261184901698
1743370446675,17:34:06.675,-1,-1,1513.55311355311,1.92600732600733,33.4261184901698
1743370446694,17:34:06.694,-1,-1,1507.69230769231,1.92454212454212,33.4261184901698
1743370446714,17:34:06.714,-1,-1,1514.28571428571,1.92600732600733,33.4261184901698
1743370446733,17:34:06.733,-1,-1,1498.9010989011,1.92454212454212,33.4261184901698
1743370446753,17:34:06.753,-1,-1,1468.86446886447,1.92454212454212,33.4261184901698
1743370446772,17:34:06.772,-1,-1,1410.98901098901,1.92454212454212,33.4261184901698
1743370446792,17:34:06.792,-1,-1,1346.52014652015,1.92454212454212,33.4261184901698
1743370446811,17:34:06.811,-1,-1,1296.7032967033,1.92454212454212,33.4261184901698
1743370446831,17:34:06.831,-1,-1,1268.13186813187,1.92454212454212,33.4261184901698
1743370446850,17:34:06.850,-1,-1,1248.35164835165,1.92454212454212,33.4261184901698
1743370446870,17:34:06.870,-1,-1,1230.03663003663,1.92454212454212,33.4261184901698
1743370446889,17:34:06.889,-1,-1,1200.7326007326,1.92454212454212,33.4261184901698
1743370446909,17:34:06.909,-1,-1,1172.16117216117,1.92454212454212,33.4261184901698
1743370446928,17:34:06.928,-1,-1,1149.45054945055,1.92307692307692,33.4261184901698
1743370446948,17:34:06.948,-1,-1,1140.65934065934,1.92454212454212,33.4261184901698
1743370446967,17:34:06.967,-1,-1,1125.27472527473,1.92307692307692,33.4261184901698
1743370446987,17:34:06.987,-1,-1,1116.48351648352,1.92307692307692,33.4261184901698
1743370447006,17:34:07.006,-1,-1,1116.48351648352,1.92307692307692,33.4261184901698
1743370447026,17:34:07.026,-1,-1,1108.42490842491,1.92307692307692,33.4261184901698
1743370447045,17:34:07.045,-1,-1,1090.10989010989,1.92307692307692,33.4261184901698
1743370447065,17:34:07.065,-1,-1,1071.79487179487,1.92307692307692,33.4261184901698
1743370447084,17:34:07.084,-1,-1,1052.01465201465,1.92307692307692,33.4261184901698
1743370447104,17:34:07.104,-1,-1,1025.64102564103,1.92307692307692,33.4261184901698
1743370447123,17:34:07.123,-1,-1,1038.82783882784,1.92307692307692,33.4261184901698
1743370447143,17:34:07.143,-1,-1,1116.48351648352,1.92307692307692,33.4261184901698
1743370447162,17:34:07.162,-1,-1,1282.05128205128,1.92307692307692,33.4261184901698
1743370447182,17:34:07.182,-1,-1,1503.2967032967,1.92307692307692,33.4261184901698
1743370447201,17:34:07.201,-1,-1,1731.13553113553,1.92161172161172,33.4261184901698
1743370447221,17:34:07.221,-1,-1,1920.14652014652,1.92307692307692,33.4261184901698
1743370447240,17:34:07.240,-1,-1,2051.28205128205,1.92307692307692,33.4261184901698
1743370447260,17:34:07.260,-1,-1,2115.75091575092,1.92307692307692,33.4261184901698
1743370447279,17:34:07.279,-1,-1,2120.87912087912,1.92307692307692,33.4261184901698
1743370447299,17:34:07.299,-1,-1,2079.85347985348,1.92307692307692,33.4261184901698
1743370447318,17:34:07.318,-1,-1,2003.663003663,1.92161172161172,33.4261184901698
1743370447338,17:34:07.338,-1,-1,1919.41391941392,1.92161172161172,33.4261184901698
1743370447357,17:34:07.357,-1,-1,1849.08424908425,1.92161172161172,33.4261184901698
1743370447377,17:34:07.377,-1,-1,1770.69597069597,1.92161172161172,33.4261184901698
1743370447396,17:34:07.396,-1,-1,1675.45787545788,1.92161172161172,33.4261184901698
1743370447416,17:34:07.416,-1,-1,1580.95238095238,1.92161172161172,33.4261184901698
1743370447435,17:34:07.435,-1,-1,1511.35531135531,1.92014652014652,33.4261184901698
1743370447455,17:34:07.455,-1,-1,1475.45787545788,1.92161172161172,33.4261184901698
1743370447474,17:34:07.474,-1,-1,1465.20146520146,1.92014652014652,33.4261184901698
1743370447494,17:34:07.494,-1,-1,1471.79487179487,1.92014652014652,33.4261184901698
1743370447513,17:34:07.513,-1,-1,1481.31868131868,1.92161172161172,33.4261184901698
1743370447533,17:34:07.533,-1,-1,1473.99267399267,1.92014652014652,33.4261184901698
1743370447552,17:34:07.552,-1,-1,1453.47985347985,1.92014652014652,33.4261184901698
1743370447572,17:34:07.572,-1,-1,1402.9304029304,1.92014652014652,33.4261184901698
1743370447591,17:34:07.591,-1,-1,1354.57875457875,1.92014652014652,33.4261184901698
1743370447611,17:34:07.611,-1,-1,1318.68131868132,1.92014652014652,33.4261184901698
1743370447630,17:34:07.630,-1,-1,1287.91208791209,1.92014652014652,33.4261184901698
1743370447650,17:34:07.650,-1,-1,1241.75824175824,1.92014652014652,33.4261184901698
1743370447669,17:34:07.669,-1,-1,1205.86080586081,1.92014652014652,33.4261184901698
1743370447689,17:34:07.689,-1,-1,1167.03296703297,1.92014652014652,33.4261184901698
1743370447708,17:34:07.708,-1,-1,1141.39194139194,1.91868131868132,33.4261184901698
1743370447728,17:34:07.728,-1,-1,1136.99633699634,1.91868131868132,33.4261184901698
1743370447747,17:34:07.747,-1,-1,1127.47252747253,1.91868131868132,33.4261184901698
1743370447767,17:34:07.767,-1,-1,1117.94871794872,1.91868131868132,33.4261184901698
1743370447786,17:34:07.786,-1,-1,1112.82051282051,1.91868131868132,33.4261184901698
1743370447806,17:34:07.806,-1,-1,1102.5641025641,1.91868131868132,33.4261184901698
1743370447825,17:34:07.825,-1,-1,1090.10989010989,1.91868131868132,33.4261184901698
1743370447845,17:34:07.845,-1,-1,1077.65567765568,1.91868131868132,33.4261184901698
1743370447864,17:34:07.864,-1,-1,1060.80586080586,1.91868131868132,33.4261184901698
1743370447884,17:34:07.884,-1,-1,1055.67765567766,1.91868131868132,33.4261184901698
1743370447903,17:34:07.903,-1,-1,1117.94871794872,1.91721611721612,33.4261184901698
1743370447923,17:34:07.923,-1,-1,1283.51648351648,1.91721611721612,33.4261184901698
1743370447942,17:34:07.942,-1,-1,1501.8315018315,1.91721611721612,33.4261184901698
1743370447962,17:34:07.962,-1,-1,1717.21611721612,1.91721611721612,33.4261184901698
1743370447981,17:34:07.981,-1,-1,1883.51648351648,1.91868131868132,33.4261184901698
1743370448001,17:34:08.001,-1,-1,1978.75457875458,1.91721611721612,33.4261184901698
1743370448020,17:34:08.020,-1,-1,1994.13919413919,1.91721611721612,33.4261184901698
1743370448040,17:34:08.040,-1,-1,1972.16117216117,1.91721611721612,33.4261184901698
1743370448059,17:34:08.059,-1,-1,1920.87912087912,1.91721611721612,33.4261184901698
1743370448079,17:34:08.079,-1,-1,1841.02564102564,1.91721611721612,33.4261184901698
1743370448098,17:34:08.098,-1,-1,1745.05494505494,1.91721611721612,33.4261184901698
1743370448118,17:34:08.118,-1,-1,1646.88644688645,1.91721611721612,33.4261184901698
1743370448137,17:34:08.137,-1,-1,1549.45054945055,1.91721611721612,33.4261184901698
1743370448157,17:34:08.157,-1,-1,1459.34065934066,1.91721611721612,33.4261184901698
1743370448176,17:34:08.176,-1,-1,1392.67399267399,1.91721611721612,33.4261184901698
1743370448196,17:34:08.196,-1,-1,1362.63736263736,1.91721611721612,33.4261184901698
1743370448215,17:34:08.215,-1,-1,1356.04395604396,1.91721611721612,33.4261184901698
1743370448235,17:34:08.235,-1,-1,1362.63736263736,1.91721611721612,33.4261184901698
1743370448254,17:34:08.254,-1,-1,1368.49816849817,1.91721611721612,33.4261184901698
1743370448274,17:34:08.274,-1,-1,1362.63736263736,1.91721611721612,33.4261184901698
1743370448293,17:34:08.293,-1,-1,1358.24175824176,1.91575091575092,33.4261184901698
1743370448313,17:34:08.313,-1,-1,1351.64835164835,1.91575091575092,33.4261184901698
1743370448332,17:34:08.332,-1,-1,1326.00732600733,1.91575091575092,33.4261184901698
1743370448352,17:34:08.352,-1,-1,1280.58608058608,1.91575091575092,33.4261184901698
1743370448371,17:34:08.371,-1,-1,1232.96703296703,1.91575091575092,33.4261184901698
1743370448391,17:34:08.391,-1,-1,1202.1978021978,1.91575091575092,33.4261184901698
1743370448410,17:34:08.410,-1,-1,1197.0695970696,1.91575091575092,33.4261184901698
1743370448430,17:34:08.430,-1,-1,1187.54578754579,1.91575091575092,33.4261184901698
1743370448449,17:34:08.449,-1,-1,1170.69597069597,1.91575091575092,33.4261184901698
1743370448469,17:34:08.469,-1,-1,1136.26373626374,1.91428571428571,33.4261184901698
1743370448488,17:34:08.488,-1,-1,1101.8315018315,1.91575091575092,33.4261184901698
1743370448508,17:34:08.508,-1,-1,1097.4358974359,1.91428571428571,33.4261184901698
1743370448527,17:34:08.527,-1,-1,1091.57509157509,1.91428571428571,33.4261184901698
1743370448547,17:34:08.547,-1,-1,1082.05128205128,1.91428571428571,33.4261184901698
1743370448566,17:34:08.566,-1,-1,1086.44688644689,1.91428571428571,33.4261184901698
1743370448586,17:34:08.586,-1,-1,1068.86446886447,1.91282051282051,33.4261184901698
1743370448605,17:34:08.605,-1,-1,1052.74725274725,1.91282051282051,33.4261184901698
1743370448625,17:34:08.625,-1,-1,1067.39926739927,1.91428571428571,33.4261184901698
1743370448644,17:34:08.644,-1,-1,1170.69597069597,1.91282051282051,33.4261184901698
1743370448664,17:34:08.664,-1,-1,1356.04395604396,1.91428571428571,33.4261184901698
1743370448683,17:34:08.683,-1,-1,1586.08058608059,1.91428571428571,33.4261184901698
1743370448703,17:34:08.703,-1,-1,1794.13919413919,1.91282051282051,33.4261184901698
1743370448722,17:34:08.722,-1,-1,1954.57875457875,1.91282051282051,33.4261184901698
1743370448742,17:34:08.742,-1,-1,2040.29304029304,1.91428571428571,33.4261184901698
1743370448761,17:34:08.761,-1,-1,2043.95604395604,1.91282051282051,33.4261184901698
1743370448781,17:34:08.781,-1,-1,2000,1.91282051282051,33.4261184901698
1743370448800,17:34:08.800,-1,-1,1937.72893772894,1.91282051282051,33.4261184901698
1743370448820,17:34:08.820,-1,-1,1863.73626373626,1.91282051282051,33.4261184901698
1743370448839,17:34:08.839,-1,-1,1797.0695970696,1.91282051282051,33.4261184901698
1743370448859,17:34:08.859,-1,-1,1723.80952380952,1.91282051282051,33.4261184901698
1743370448878,17:34:08.878,-1,-1,1630.76923076923,1.91282051282051,33.4261184901698
1743370448898,17:34:08.898,-1,-1,1529.67032967033,1.91282051282051,33.4261184901698
1743370448917,17:34:08.917,-1,-1,1452.01465201465,1.91135531135531,33.4261184901698
1743370448937,17:34:08.937,-1,-1,1425.64102564103,1.91135531135531,33.4261184901698
1743370448956,17:34:08.956,-1,-1,1419.78021978022,1.91135531135531,33.4261184901698
1743370448976,17:34:08.976,-1,-1,1406.59340659341,1.91135531135531,33.4261184901698
1743370448995,17:34:08.995,-1,-1,1404.3956043956,1.91135531135531,33.4261184901698
1743370449015,17:34:09.015,-1,-1,1398.5347985348,1.91135531135531,33.4261184901698
1743370449034,17:34:09.034,-1,-1,1378.75457875458,1.91135531135531,33.4261184901698
1743370449054,17:34:09.054,-1,-1,1367.03296703297,1.91135531135531,33.4261184901698
1743370449073,17:34:09.073,-1,-1,1356.04395604396,1.91135531135531,33.4261184901698
1743370449093,17:34:09.093,-1,-1,1326.73992673993,1.90989010989011,33.4261184901698
1743370449112,17:34:09.112,-1,-1,1293.04029304029,1.91135531135531,33.4261184901698
1743370449132,17:34:09.132,-1,-1,1260.80586080586,1.90989010989011,33.4261184901698
1743370449151,17:34:09.151,-1,-1,1224.17582417582,1.91135531135531,33.4261184901698
1743370449171,17:34:09.171,-1,-1,1191.94139194139,1.90989010989011,33.4261184901698
1743370449190,17:34:09.190,-1,-1,1182.41758241758,1.91135531135531,33.4261184901698
1743370449210,17:34:09.210,-1,-1,1187.54578754579,1.90989010989011,33.4261184901698
1743370449229,17:34:09.229,-1,-1,1176.55677655678,1.90989010989011,33.4261184901698
1743370449249,17:34:09.249,-1,-1,1156.77655677656,1.90989010989011,33.4261184901698
1743370449268,17:34:09.268,-1,-1,1119.41391941392,1.90989010989011,33.4261184901698
1743370449288,17:34:09.288,-1,-1,1086.44688644689,1.90989010989011,33.4311218261719
1743370449307,17:34:09.307,-1,-1,1055.67765567766,1.90842490842491,33.4311218261719
1743370449327,17:34:09.327,-1,-1,1041.02564102564,1.90842490842491,33.4311218261719
1743370449346,17:34:09.346,-1,-1,1027.83882783883,1.90842490842491,33.4311218261719
1743370449366,17:34:09.366,-1,-1,1043.22344322344,1.90842490842491,33.4311218261719
1743370449385,17:34:09.385,-1,-1,1133.33333333333,1.90842490842491,33.4311218261719
1743370449405,17:34:09.405,-1,-1,1312.08791208791,1.90842490842491,33.4311218261719
1743370449424,17:34:09.424,-1,-1,1543.58974358974,1.90695970695971,33.4311218261719
1743370449444,17:34:09.444,-1,-1,1772.89377289377,1.90842490842491,33.4311218261719
1743370449463,17:34:09.463,-1,-1,1951.64835164835,1.90842490842491,33.4311218261719
1743370449483,17:34:09.483,-1,-1,2068.86446886447,1.90695970695971,33.4311218261719
1743370449502,17:34:09.502,-1,-1,2118.68131868132,1.90695970695971,33.4311218261719
1743370449522,17:34:09.522,-1,-1,2104.7619047619,1.90695970695971,33.4311218261719
1743370449541,17:34:09.541,-1,-1,2034.43223443223,1.90695970695971,33.4311218261719
1743370449561,17:34:09.561,-1,-1,1957.50915750916,1.90695970695971,33.4311218261719
1743370449580,17:34:09.580,-1,-1,1887.91208791209,1.90695970695971,33.4311218261719
1743370449600,17:34:09.600,-1,-1,1824.17582417582,1.90695970695971,33.4311218261719
1743370449619,17:34:09.619,-1,-1,1748.71794871795,1.9054945054945,33.4311218261719
1743370449639,17:34:09.639,-1,-1,1652.01465201465,1.9054945054945,33.4311218261719
1743370449658,17:34:09.658,-1,-1,1554.57875457875,1.9054945054945,33.4311218261719
1743370449678,17:34:09.678,-1,-1,1479.12087912088,1.9054945054945,33.4311218261719
1743370449697,17:34:09.697,-1,-1,1423.44322344322,1.9054945054945,33.4311218261719
1743370449717,17:34:09.717,-1,-1,1403.663003663,1.9054945054945,33.4311218261719
1743370449736,17:34:09.736,-1,-1,1400,1.9040293040293,33.4311218261719
1743370449756,17:34:09.756,-1,-1,1410.25641025641,1.9040293040293,33.4311218261719
1743370449775,17:34:09.775,-1,-1,1401.4652014652,1.9040293040293,33.4311218261719
1743370449795,17:34:09.795,-1,-1,1386.08058608059,1.9040293040293,33.4311218261719
1743370449814,17:34:09.814,-1,-1,1369.96336996337,1.9040293040293,33.4311218261719
1743370449834,17:34:09.834,-1,-1,1338.46153846154,1.9040293040293,33.4311218261719
1743370449853,17:34:09.853,-1,-1,1297.4358974359,1.9040293040293,33.4311218261719
1743370449873,17:34:09.873,-1,-1,1254.21245421245,1.9040293040293,33.4311218261719
1743370449892,17:34:09.892,-1,-1,1231.50183150183,1.9054945054945,33.4311218261719
1743370449912,17:34:09.912,-1,-1,1227.10622710623,1.9040293040293,33.4311218261719
1743370449931,17:34:09.931,-1,-1,1222.71062271062,1.9054945054945,33.4311218261719
1743370449951,17:34:09.951,-1,-1,1176.55677655678,1.90842490842491,33.4311218261719
1743370449970,17:34:09.970,-1,-1,1148.71794871795,1.90842490842491,33.4311218261719
1743370449990,17:34:09.990,-1,-1,1141.39194139194,1.90695970695971,33.4311218261719
1743370450009,17:34:10.009,-1,-1,1130.40293040293,1.9040293040293,33.4311218261719
1743370450029,17:34:10.029,-1,-1,1112.08791208791,1.9025641025641,33.4311218261719
1743370450048,17:34:10.048,-1,-1,1099.6336996337,1.8996336996337,33.4311218261719
1743370450068,17:34:10.068,-1,-1,1090.84249084249,1.8981684981685,33.4311218261719
1743370450087,17:34:10.087,-1,-1,1079.12087912088,1.8967032967033,33.4311218261719
1743370450107,17:34:10.107,-1,-1,1065.20146520147,1.89377289377289,33.4311218261719
1743370450126,17:34:10.126,-1,-1,1058.60805860806,1.88937728937729,33.4311218261719
1743370450146,17:34:10.146,-1,-1,1108.42490842491,1.88644688644689,33.4311218261719
1743370450165,17:34:10.165,-1,-1,1250.54945054945,1.88644688644689,33.4311218261719
1743370450185,17:34:10.185,-1,-1,1454.21245421245,1.88351648351648,33.4311218261719
1743370450204,17:34:10.204,-1,-1,1667.39926739927,1.88058608058608,33.4311218261719
1743370450224,17:34:10.224,-1,-1,1852.74725274725,1.87765567765568,33.4311218261719
1743370450243,17:34:10.243,-1,-1,1961.90476190476,1.87472527472527,33.4311218261719
1743370450263,17:34:10.263,-1,-1,2009.52380952381,1.87032967032967,33.4311218261719
1743370450282,17:34:10.282,-1,-1,2008.79120879121,1.86739926739927,33.4311218261719
1743370450302,17:34:10.302,-1,-1,1949.45054945055,1.86446886446886,33.4311218261719
1743370450321,17:34:10.321,-1,-1,1880.58608058608,1.86153846153846,33.4311218261719
1743370450341,17:34:10.341,-1,-1,1834.43223443223,1.85714285714286,33.4311218261719
1743370450360,17:34:10.360,-1,-1,1787.54578754579,1.85421245421245,33.4311218261719
1743370450380,17:34:10.380,-1,-1,1712.82051282051,1.84981684981685,33.4311218261719
1743370450399,17:34:10.399,-1,-1,1614.65201465201,1.84688644688645,33.4311218261719
1743370450419,17:34:10.419,-1,-1,1522.34432234432,1.84249084249084,33.4311218261719
1743370450438,17:34:10.438,-1,-1,1430.76923076923,1.83956043956044,33.4311218261719
1743370450458,17:34:10.458,-1,-1,1375.82417582418,1.83809523809524,33.4311218261719
1743370450477,17:34:10.477,-1,-1,1352.38095238095,1.83663003663004,33.4311218261719
1743370450497,17:34:10.497,-1,-1,1358.24175824176,1.83369963369963,33.4311218261719
1743370450516,17:34:10.516,-1,-1,1371.42857142857,1.83076923076923,33.4311218261719
1743370450536,17:34:10.536,-1,-1,1380.95238095238,1.83076923076923,33.4311218261719
1743370450555,17:34:10.555,-1,-1,1362.63736263736,1.82930402930403,33.4311218261719
1743370450575,17:34:10.575,-1,-1,1336.99633699634,1.82783882783883,33.4311218261719
1743370450594,17:34:10.594,-1,-1,1285.71428571429,1.82930402930403,33.4311218261719
1743370450614,17:34:10.614,-1,-1,1246.15384615385,1.82930402930403,33.4311218261719
1743370450633,17:34:10.633,-1,-1,1207.32600732601,1.82930402930403,33.4311218261719
1743370450653,17:34:10.653,-1,-1,1184.61538461538,1.82930402930403,33.4311218261719
1743370450672,17:34:10.672,-1,-1,1178.75457875458,1.83076923076923,33.4311218261719
1743370450692,17:34:10.692,-1,-1,1157.50915750916,1.83223443223443,33.4311218261719
1743370450711,17:34:10.711,-1,-1,1132.60073260073,1.83516483516483,33.4311218261719
1743370450731,17:34:10.731,-1,-1,1117.94871794872,1.83956043956044,33.4311218261719
1743370450750,17:34:10.750,-1,-1,1101.0989010989,1.84542124542125,33.4311218261719
1743370450770,17:34:10.770,-1,-1,1079.85347985348,1.84981684981685,33.4311218261719
1743370450789,17:34:10.789,-1,-1,1065.93406593407,1.85421245421245,33.4311218261719
1743370450809,17:34:10.809,-1,-1,1063.73626373626,1.85860805860806,33.4311218261719
1743370450828,17:34:10.828,-1,-1,1054.21245421245,1.86446886446886,33.4311218261719
1743370450848,17:34:10.848,-1,-1,1050.54945054945,1.86886446886447,33.4311218261719
1743370450867,17:34:10.867,-1,-1,1046.15384615385,1.87032967032967,33.4311218261719
1743370450887,17:34:10.887,-1,-1,1043.22344322344,1.87179487179487,33.4311218261719
1743370450906,17:34:10.906,-1,-1,1046.15384615385,1.87326007326007,33.4311218261719
1743370450926,17:34:10.926,-1,-1,1074.72527472527,1.87179487179487,33.4311218261719
1743370450945,17:34:10.945,-1,-1,1180.95238095238,1.87472527472527,33.4311218261719
1743370450965,17:34:10.965,-1,-1,1358.97435897436,1.87765567765568,33.4311218261719
1743370450984,17:34:10.984,-1,-1,1548.71794871795,1.87912087912088,33.4311218261719
1743370451004,17:34:11.004,-1,-1,1720.87912087912,1.88058608058608,33.4311218261719
1743370451023,17:34:11.023,-1,-1,1838.82783882784,1.88058608058608,33.4311218261719
1743370451043,17:34:11.043,-1,-1,1890.10989010989,1.88205128205128,33.4311218261719
1743370451062,17:34:11.062,-1,-1,1883.51648351648,1.88205128205128,33.4311218261719
1743370451082,17:34:11.082,-1,-1,1827.83882783883,1.88498168498169,33.4311218261719
1743370451101,17:34:11.101,-1,-1,1748.71794871795,1.88644688644689,33.4311218261719
1743370451121,17:34:11.121,-1,-1,1684.24908424908,1.88644688644689,33.4311218261719
1743370451140,17:34:11.140,-1,-1,1620.51282051282,1.88791208791209,33.4311218261719
1743370451160,17:34:11.160,-1,-1,1547.98534798535,1.88791208791209,33.4311218261719
1743370451179,17:34:11.179,-1,-1,1463.73626373626,1.88937728937729,33.4311218261719
1743370451199,17:34:11.199,-1,-1,1383.88278388278,1.89084249084249,33.4311218261719
1743370451218,17:34:11.218,-1,-1,1329.67032967033,1.89084249084249,33.4311218261719
1743370451238,17:34:11.238,-1,-1,1320.87912087912,1.89084249084249,33.4311218261719
1743370451257,17:34:11.257,-1,-1,1336.99633699634,1.89230769230769,33.4311218261719
1743370451277,17:34:11.277,-1,-1,1342.85714285714,1.89377289377289,33.4361251563532
1743370451296,17:34:11.296,-1,-1,1352.38095238095,1.89377289377289,33.4361251563532
1743370451316,17:34:11.316,-1,-1,1356.77655677656,1.89377289377289,33.4361251563532
1743370451335,17:34:11.335,-1,-1,1341.39194139194,1.89377289377289,33.4361251563532
1743370451355,17:34:11.355,-1,-1,1324.54212454212,1.89523809523809,33.4361251563532
1743370451374,17:34:11.374,-1,-1,1298.1684981685,1.89523809523809,33.4361251563532
1743370451394,17:34:11.394,-1,-1,1271.06227106227,1.8967032967033,33.4361251563532
1743370451413,17:34:11.413,-1,-1,1239.56043956044,1.8967032967033,33.4361251563532
1743370451433,17:34:11.433,-1,-1,1212.45421245421,1.8967032967033,33.4361251563532
1743370451452,17:34:11.452,-1,-1,1180.95238095238,1.8967032967033,33.4361251563532
1743370451472,17:34:11.472,-1,-1,1159.70695970696,1.8967032967033,33.4361251563532
1743370451491,17:34:11.491,-1,-1,1141.39194139194,1.8981684981685,33.4361251563532
1743370451511,17:34:11.511,-1,-1,1120.87912087912,1.8981684981685,33.4361251563532
1743370451530,17:34:11.530,-1,-1,1114.28571428571,1.8981684981685,33.4361251563532
1743370451550,17:34:11.550,-1,-1,1112.08791208791,1.8981684981685,33.4361251563532
1743370451569,17:34:11.569,-1,-1,1107.69230769231,1.8981684981685,33.4361251563532
1743370451589,17:34:11.589,-1,-1,1098.9010989011,1.8981684981685,33.4361251563532
1743370451608,17:34:11.608,-1,-1,1079.12087912088,1.8981684981685,33.4361251563532
1743370451628,17:34:11.628,-1,-1,1071.06227106227,1.8981684981685,33.4361251563532
1743370451647,17:34:11.647,-1,-1,1095.2380952381,1.8981684981685,33.4361251563532
1743370451667,17:34:11.667,-1,-1,1186.81318681319,1.8981684981685,33.4361251563532
1743370451686,17:34:11.686,-1,-1,1342.85714285714,1.8981684981685,33.4361251563532
1743370451706,17:34:11.706,-1,-1,1522.34432234432,1.8981684981685,33.4361251563532
1743370451725,17:34:11.725,-1,-1,1676.92307692308,1.8981684981685,33.4361251563532
1743370451745,17:34:11.745,-1,-1,1778.02197802198,1.8981684981685,33.4361251563532
1743370451764,17:34:11.764,-1,-1,1818.31501831502,1.8981684981685,33.4361251563532
1743370451784,17:34:11.784,-1,-1,1817.58241758242,1.8981684981685,33.4361251563532
1743370451803,17:34:11.803,-1,-1,1799.2673992674,1.8981684981685,33.4361251563532
1743370451823,17:34:11.823,-1,-1,1772.16117216117,1.8981684981685,33.4361251563532
1743370451842,17:34:11.842,-1,-1,1739.92673992674,1.8981684981685,33.4361251563532
1743370451862,17:34:11.862,-1,-1,1696.7032967033,1.8981684981685,33.4361251563532
1743370451881,17:34:11.881,-1,-1,1621.97802197802,1.8981684981685,33.4361251563532
1743370451901,17:34:11.901,-1,-1,1538.46153846154,1.8981684981685,33.4361251563532
1743370451920,17:34:11.920,-1,-1,1471.06227106227,1.8996336996337,33.4361251563532
1743370451940,17:34:11.940,-1,-1,1438.09523809524,1.8981684981685,33.4361251563532
1743370451959,17:34:11.959,-1,-1,1421.97802197802,1.8996336996337,33.4361251563532
1743370451979,17:34:11.979,-1,-1,1415.38461538462,1.8996336996337,33.4361251563532
1743370451998,17:34:11.998,-1,-1,1399.2673992674,1.8996336996337,33.4361251563532
1743370452018,17:34:12.018,-1,-1,1402.9304029304,1.9025641025641,33.4361251563532
1743370452037,17:34:12.037,-1,-1,1413.91941391941,1.9025641025641,33.4361251563532
1743370452057,17:34:12.057,-1,-1,1400.7326007326,1.9010989010989,33.4361251563532
1743370452076,17:34:12.076,-1,-1,1386.81318681319,1.9025641025641,33.4361251563532
1743370452096,17:34:12.096,-1,-1,1389.01098901099,1.9010989010989,33.4361251563532
1743370452115,17:34:12.115,-1,-1,1387.54578754579,1.8996336996337,33.4361251563532
1743370452135,17:34:12.135,-1,-1,1363.36996336996,1.8981684981685,33.4361251563532
1743370452154,17:34:12.154,-1,-1,1334.06593406593,1.8967032967033,33.4361251563532
1743370452174,17:34:12.174,-1,-1,1309.15750915751,1.8981684981685,33.4361251563532
1743370452193,17:34:12.193,-1,-1,1287.91208791209,1.8981684981685,33.4361251563532
1743370452213,17:34:12.213,-1,-1,1260.80586080586,1.8996336996337,33.4361251563532
1743370452232,17:34:12.232,-1,-1,1232.96703296703,1.8981684981685,33.4361251563532
1743370452252,17:34:12.252,-1,-1,1212.45421245421,1.8981684981685,33.4361251563532
1743370452271,17:34:12.271,-1,-1,1205.86080586081,1.8967032967033,33.4311218261719
1743370452291,17:34:12.291,-1,-1,1189.01098901099,1.8967032967033,33.4311218261719
1743370452310,17:34:12.310,-1,-1,1164.10256410256,1.8967032967033,33.4311218261719
1743370452330,17:34:12.330,-1,-1,1149.45054945055,1.8967032967033,33.4311218261719
1743370452349,17:34:12.349,-1,-1,1155.31135531136,1.89523809523809,33.4311218261719
1743370452369,17:34:12.369,-1,-1,1145.05494505494,1.89523809523809,33.4311218261719
1743370452388,17:34:12.388,-1,-1,1144.32234432234,1.89377289377289,33.4311218261719
1743370452408,17:34:12.408,-1,-1,1197.0695970696,1.89377289377289,33.4311218261719
1743370452427,17:34:12.427,-1,-1,1342.12454212454,1.89377289377289,33.4311218261719
1743370452447,17:34:12.447,-1,-1,1542.12454212454,1.89377289377289,33.4311218261719
1743370452466,17:34:12.466,-1,-1,1734.06593406593,1.89377289377289,33.4311218261719
1743370452486,17:34:12.486,-1,-1,1872.52747252747,1.89230769230769,33.4311218261719
1743370452505,17:34:12.505,-1,-1,1945.05494505494,1.89084249084249,33.4311218261719
1743370452525,17:34:12.525,-1,-1,1952.38095238095,1.89084249084249,33.4311218261719
1743370452544,17:34:12.544,-1,-1,1928.20512820513,1.89084249084249,33.4311218261719
1743370452564,17:34:12.564,-1,-1,1880.58608058608,1.89084249084249,33.4311218261719
1743370452583,17:34:12.583,-1,-1,1805.86080586081,1.88937728937729,33.4311218261719
1743370452603,17:34:12.603,-1,-1,1733.33333333333,1.88937728937729,33.4311218261719
1743370452622,17:34:12.622,-1,-1,1679.85347985348,1.88937728937729,33.4311218261719
1743370452642,17:34:12.642,-1,-1,1615.38461538462,1.88937728937729,33.4311218261719
1743370452661,17:34:12.661,-1,-1,1531.13553113553,1.88937728937729,33.4311218261719
1743370452681,17:34:12.681,-1,-1,1452.74725274725,1.88791208791209,33.4311218261719
