RawTimestamp,LocalTime,HR_Direct,HR_Buffered,PPG,GSR,Temperature
1743380226655,20:17:06.655,-1,-1,1437.36263736264,0.515706515706516,26.4608428180218
1743380226675,20:17:06.675,-1,-1,1424.90842490842,0.515706515706516,26.4608428180218
1743380226694,20:17:06.694,-1,-1,1424.90842490842,0.455597470522842,26.4608428180218
1743380226714,20:17:06.714,-1,-1,1421.24542124542,0.455597470522842,26.4608428180218
1743380226733,20:17:06.733,-1,-1,1400,0.455597470522842,26.4608428180218
1743380226753,20:17:06.753,-1,-1,1373.62637362637,0.455597470522842,26.4608428180218
1743380226772,20:17:06.772,-1,-1,1358.97435897436,0.455597470522842,26.4608428180218
1743380226792,20:17:06.792,-1,-1,1347.25274725275,0.426286837436663,26.4608428180218
1743380226811,20:17:06.811,-1,-1,1345.05494505494,0.426286837436663,26.4608428180218
1743380226831,20:17:06.831,-1,-1,1339.19413919414,0.426286837436663,26.4608428180218
1743380226850,20:17:06.850,-1,-1,1325.27472527473,0.426286837436663,26.4608428180218
1743380226870,20:17:06.870,-1,-1,1312.82051282051,0.426286837436663,26.4608428180218
1743380226889,20:17:06.889,-1,-1,1302.5641025641,0.41978021978022,26.4608428180218
1743380226909,20:17:06.909,-1,-1,1305.49450549451,0.41978021978022,26.4608428180218
1743380226928,20:17:06.928,-1,-1,1305.49450549451,0.41978021978022,26.4608428180218
1743380226948,20:17:06.948,-1,-1,1299.6336996337,0.41978021978022,26.4608428180218
1743380226967,20:17:06.967,-1,-1,1288.64468864469,0.41978021978022,26.4608428180218
1743380226987,20:17:06.987,-1,-1,1271.06227106227,0.397158397158397,26.4608428180218
1743380227006,20:17:07.006,-1,-1,1254.94505494505,0.409146409146409,26.4608428180218
1743380227026,20:17:07.026,-1,-1,1252.74725274725,0.414474414474414,26.4608428180218
1743380227045,20:17:07.045,-1,-1,1243.22344322344,0.412254412254412,26.4608428180218
1743380227065,20:17:07.065,-1,-1,1236.63003663004,0.4002664002664,26.4608428180218
1743380227084,20:17:07.084,-1,-1,1257.14285714286,0.393162393162393,26.4608428180218
1743380227104,20:17:07.104,-1,-1,1323.80952380952,0.396714396714397,26.4608428180218
1743380227123,20:17:07.123,-1,-1,1406.59340659341,0.409590409590409,26.4608428180218
1743380227143,20:17:07.143,-1,-1,1499.6336996337,0.413586413586413,26.4608428180218
1743380227162,20:17:07.162,-1,-1,1575.09157509157,0.410922410922411,26.4608428180218
1743380227182,20:17:07.182,-1,-1,1624.17582417582,0.397602397602398,26.4608428180218
1743380227201,20:17:07.201,-1,-1,1648.35164835165,0.392718392718393,26.4608428180218
1743380227221,20:17:07.221,-1,-1,1656.41025641026,0.397602397602398,26.4608428180218
1743380227240,20:17:07.240,-1,-1,1649.81684981685,0.41047841047841,26.4608428180218
1743380227260,20:17:07.260,-1,-1,1643.22344322344,0.413586413586413,26.4608428180218
1743380227279,20:17:07.279,-1,-1,1643.22344322344,0.409590409590409,26.4608428180218
1743380227299,20:17:07.299,-1,-1,1657.14285714286,0.396714396714397,26.4608428180218
1743380227318,20:17:07.318,-1,-1,1667.39926739927,0.392718392718393,26.4608428180218
1743380227338,20:17:07.338,-1,-1,1667.39926739927,0.392718392718393,26.4608428180218
1743380227357,20:17:07.357,-1,-1,1632.23443223443,0.410922410922411,26.4608428180218
1743380227377,20:17:07.377,-1,-1,1608.79120879121,0.412254412254412,26.4608428180218
1743380227396,20:17:07.396,-1,-1,1579.48717948718,0.407370407370407,26.4608428180218
1743380227416,20:17:07.416,-1,-1,1550.18315018315,0.394494394494394,26.4608428180218
1743380227435,20:17:07.435,-1,-1,1531.86813186813,0.391830391830392,26.4608428180218
1743380227455,20:17:07.455,-1,-1,1505.49450549451,0.398934398934399,26.4608428180218
1743380227474,20:17:07.474,-1,-1,1484.98168498168,0.410922410922411,26.4608428180218
1743380227494,20:17:07.494,-1,-1,1466.66666666667,0.411366411366411,26.4608428180218
1743380227513,20:17:07.513,-1,-1,1441.02564102564,0.405150405150405,26.4608428180218
1743380227533,20:17:07.533,-1,-1,1424.90842490842,0.392718392718393,26.4608428180218
1743380227552,20:17:07.552,-1,-1,1403.663003663,0.391830391830392,26.4608428180218
1743380227572,20:17:07.572,-1,-1,1390.47619047619,0.3998223998224,34.8868453017203
1743380227591,20:17:07.591,-1,-1,1367.76556776557,0.41047841047841,34.8868453017203
1743380227611,20:17:07.611,-1,-1,1347.25274725275,0.41047841047841,34.8868453017203
1743380227630,20:17:07.630,-1,-1,1333.33333333333,0.402930402930403,34.8868453017203
1743380227650,20:17:07.650,-1,-1,1322.34432234432,0.390942390942391,34.8868453017203
1743380227669,20:17:07.669,-1,-1,1308.42490842491,0.391386391386391,34.8868453017203
1743380227689,20:17:07.689,-1,-1,1295.2380952381,0.400710400710401,34.8868453017203
1743380227708,20:17:07.708,-1,-1,1302.5641025641,0.41003441003441,34.8868453017203
1743380227728,20:17:07.728,-1,-1,1296.7032967033,0.409146409146409,34.8868453017203
1743380227747,20:17:07.747,-1,-1,1284.24908424908,0.400710400710401,34.8868453017203
1743380227767,20:17:07.767,-1,-1,1280.58608058608,0.39005439005439,34.8868453017203
1743380227786,20:17:07.786,-1,-1,1274.72527472527,0.391386391386391,34.8868453017203
1743380227806,20:17:07.806,-1,-1,1262.27106227106,0.402042402042402,34.8868453017203
1743380227825,20:17:07.825,-1,-1,1243.95604395604,0.41003441003441,34.8868453017203
1743380227845,20:17:07.845,-1,-1,1235.16483516484,0.408702408702409,34.8868453017203
1743380227864,20:17:07.864,-1,-1,1220.51282051282,0.398046398046398,34.8868453017203
1743380227884,20:17:07.884,-1,-1,1205.86080586081,0.389166389166389,34.8868453017203
1743380227903,20:17:07.903,-1,-1,1202.9304029304,0.390942390942391,34.8868453017203
1743380227923,20:17:07.923,-1,-1,1205.86080586081,0.402930402930403,34.8868453017203
1743380227942,20:17:07.942,-1,-1,1204.3956043956,0.409146409146409,34.8868453017203
1743380227962,20:17:07.962,-1,-1,1212.45421245421,0.407370407370407,34.8868453017203
1743380227981,20:17:07.981,-1,-1,1216.11721611722,0.395826395826396,34.8868453017203
1743380228001,20:17:08.001,-1,-1,1205.86080586081,0.388278388278388,34.8868453017203
1743380228020,20:17:08.020,-1,-1,1208.79120879121,0.391386391386391,34.8868453017203
1743380228040,20:17:08.040,-1,-1,1233.69963369963,0.403374403374403,34.8868453017203
1743380228059,20:17:08.059,-1,-1,1290.84249084249,0.408258408258408,34.8868453017203
1743380228079,20:17:08.079,-1,-1,1361.17216117216,0.405594405594405,34.8868453017203
1743380228098,20:17:08.098,-1,-1,1429.30402930403,0.393162393162393,34.8868453017203
1743380228118,20:17:08.118,-1,-1,1478.38827838828,0.387390387390387,34.8868453017203
1743380228137,20:17:08.137,-1,-1,1505.49450549451,0.391386391386391,34.8868453017203
1743380228157,20:17:08.157,-1,-1,1529.67032967033,0.404706404706405,34.8868453017203
1743380228176,20:17:08.176,-1,-1,1544.32234432234,0.408258408258408,34.8868453017203
1743380228196,20:17:08.196,-1,-1,1545.78754578755,0.404706404706405,34.8868453017203
1743380228215,20:17:08.215,-1,-1,1539.92673992674,0.391386391386391,34.8868453017203
1743380228235,20:17:08.235,-1,-1,1540.65934065934,0.386946386946387,34.8868453017203
1743380228254,20:17:08.254,-1,-1,1533.33333333333,0.391830391830392,34.8868453017203
1743380228274,20:17:08.274,-1,-1,1520.14652014652,0.404706404706405,34.8868453017203
1743380228293,20:17:08.293,-1,-1,1497.4358974359,0.407370407370407,34.8868453017203
1743380228313,20:17:08.313,-1,-1,1468.13186813187,0.402930402930403,34.8868453017203
1743380228332,20:17:08.332,-1,-1,1448.35164835165,0.38961038961039,34.8868453017203
1743380228352,20:17:08.352,-1,-1,1430.76923076923,0.386502386502386,34.8868453017203
1743380228371,20:17:08.371,-1,-1,1421.24542124542,0.392718392718393,34.8868453017203
1743380228391,20:17:08.391,-1,-1,1419.04761904762,0.405150405150405,34.8868453017203
1743380228410,20:17:08.410,-1,-1,1415.38461538462,0.406482406482406,34.8868453017203
1743380228430,20:17:08.430,-1,-1,1397.0695970696,0.400710400710401,34.8868453017203
1743380228449,20:17:08.449,-1,-1,1372.16117216117,0.387834387834388,34.8868453017203
1743380228469,20:17:08.469,-1,-1,1350.91575091575,0.386058386058386,34.8868453017203
1743380228488,20:17:08.488,-1,-1,1347.98534798535,0.393606393606394,34.8868453017203
1743380228508,20:17:08.508,-1,-1,1339.19413919414,0.405150405150405,34.8868453017203
1743380228527,20:17:08.527,-1,-1,1315.75091575092,0.405594405594405,34.8868453017203
1743380228547,20:17:08.547,-1,-1,1291.57509157509,0.398490398490398,34.8868453017203
1743380228566,20:17:08.566,-1,-1,1269.59706959707,0.386058386058386,34.9018501932733
1743380228586,20:17:08.586,-1,-1,1268.13186813187,0.386058386058386,34.9018501932733
1743380228605,20:17:08.605,-1,-1,1268.86446886447,0.394494394494394,34.9018501932733
1743380228625,20:17:08.625,-1,-1,1271.06227106227,0.404706404706405,34.9018501932733
1743380228644,20:17:08.644,-1,-1,1265.20146520147,0.404706404706405,34.9018501932733
1743380228664,20:17:08.664,-1,-1,1254.21245421245,0.396270396270396,34.9018501932733
1743380228683,20:17:08.683,-1,-1,1248.35164835165,0.385170385170385,34.9018501932733
1743380228703,20:17:08.703,-1,-1,1244.68864468864,0.385614385614386,34.9018501932733
1743380228722,20:17:08.722,-1,-1,1248.35164835165,0.395826395826396,34.9018501932733
1743380228742,20:17:08.742,-1,-1,1248.35164835165,0.404706404706405,34.9018501932733
1743380228761,20:17:08.761,-1,-1,1244.68864468864,0.403374403374403,34.9018501932733
1743380228781,20:17:08.781,-1,-1,1242.49084249084,0.393606393606394,34.9018501932733
1743380228800,20:17:08.800,-1,-1,1238.09523809524,0.383838383838384,34.9018501932733
1743380228820,20:17:08.820,-1,-1,1236.63003663004,0.386058386058386,34.9018501932733
1743380228839,20:17:08.839,-1,-1,1228.57142857143,0.396714396714397,34.9018501932733
1743380228859,20:17:08.859,-1,-1,1232.96703296703,0.404262404262404,34.9018501932733
1743380228878,20:17:08.878,-1,-1,1234.43223443223,0.402486402486402,34.9018501932733
1743380228898,20:17:08.898,-1,-1,1227.10622710623,0.391386391386391,34.9018501932733
1743380228917,20:17:08.917,-1,-1,1213.18681318681,0.382950382950383,34.9018501932733
1743380228937,20:17:08.937,-1,-1,1224.17582417582,0.385614385614386,34.9018501932733
1743380228956,20:17:08.956,-1,-1,1262.27106227106,0.397602397602398,34.9018501932733
1743380228976,20:17:08.976,-1,-1,1323.07692307692,0.403818403818404,34.9018501932733
1743380228995,20:17:08.995,-1,-1,1372.16117216117,0.401598401598402,34.9018501932733
1743380229015,20:17:09.015,-1,-1,1405.12820512821,0.389166389166389,34.9018501932733
1743380229034,20:17:09.034,-1,-1,1435.89743589744,0.382062382062382,34.9018501932733
1743380229054,20:17:09.054,-1,-1,1446.15384615385,0.385614385614386,34.9018501932733
1743380229073,20:17:09.073,-1,-1,1479.85347985348,0.398490398490398,34.9018501932733
1743380229093,20:17:09.093,-1,-1,1506.22710622711,0.402930402930403,34.9018501932733
1743380229112,20:17:09.112,-1,-1,1492.30769230769,0.3998223998224,34.9018501932733
1743380229132,20:17:09.132,-1,-1,1477.65567765568,0.386946386946387,34.9018501932733
1743380229151,20:17:09.151,-1,-1,1467.39926739927,0.381174381174381,34.9018501932733
1743380229171,20:17:09.171,-1,-1,1430.76923076923,0.385614385614386,34.9018501932733
1743380229190,20:17:09.190,-1,-1,1406.59340659341,0.398934398934399,34.9018501932733
1743380229210,20:17:09.210,-1,-1,1376.55677655678,0.402042402042402,34.9018501932733
1743380229229,20:17:09.229,-1,-1,1346.52014652015,0.398490398490398,34.9018501932733
1743380229249,20:17:09.249,-1,-1,1342.85714285714,0.384726384726385,34.9018501932733
1743380229268,20:17:09.268,-1,-1,1349.45054945055,0.381174381174381,34.9018501932733
1743380229288,20:17:09.288,-1,-1,1356.77655677656,0.386502386502386,34.9018501932733
1743380229307,20:17:09.307,-1,-1,1357.50915750916,0.399378399378399,34.9018501932733
1743380229327,20:17:09.327,-1,-1,1362.63736263736,0.401154401154401,34.9018501932733
1743380229346,20:17:09.346,-1,-1,1362.63736263736,0.401154401154401,34.9018501932733
1743380229366,20:17:09.366,-1,-1,1361.90476190476,0.383394383394383,34.9018501932733
1743380229385,20:17:09.385,-1,-1,1345.05494505494,0.380730380730381,34.9018501932733
1743380229405,20:17:09.405,-1,-1,1323.07692307692,0.387834387834388,34.9018501932733
1743380229424,20:17:09.424,-1,-1,1306.95970695971,0.3998223998224,34.9018501932733
1743380229444,20:17:09.444,-1,-1,1298.9010989011,0.400710400710401,34.9018501932733
1743380229463,20:17:09.463,-1,-1,1282.05128205128,0.394494394494394,34.9018501932733
1743380229483,20:17:09.483,-1,-1,1263.00366300366,0.381618381618382,34.9018501932733
1743380229502,20:17:09.502,-1,-1,1266.66666666667,0.380730380730381,34.9018501932733
1743380229522,20:17:09.522,-1,-1,1288.64468864469,0.388722388722389,34.9018501932733
1743380229541,20:17:09.541,-1,-1,1282.05128205128,0.3998223998224,34.9018501932733
1743380229561,20:17:09.561,-1,-1,1271.79487179487,0.3998223998224,34.9118534252048
1743380229580,20:17:09.580,-1,-1,1265.93406593407,0.392274392274392,34.9118534252048
1743380229600,20:17:09.600,-1,-1,1264.46886446886,0.38028638028638,34.9118534252048
1743380229619,20:17:09.619,-1,-1,1255.67765567766,0.380730380730381,34.9118534252048
1743380229639,20:17:09.639,-1,-1,1247.61904761905,0.38961038961039,34.9118534252048
1743380229658,20:17:09.658,-1,-1,1236.63003663004,0.3998223998224,34.9118534252048
1743380229678,20:17:09.678,-1,-1,1227.83882783883,0.398934398934399,34.9118534252048
1743380229697,20:17:09.697,-1,-1,1229.30402930403,0.38961038961039,34.9118534252048
1743380229717,20:17:09.717,-1,-1,1224.17582417582,0.379398379398379,34.9118534252048
1743380229736,20:17:09.736,-1,-1,1216.11721611722,0.380730380730381,34.9118534252048
1743380229756,20:17:09.756,-1,-1,1213.18681318681,0.391386391386391,34.9118534252048
1743380229775,20:17:09.775,-1,-1,1225.64102564103,0.399378399378399,34.9118534252048
1743380229795,20:17:09.795,-1,-1,1236.63003663004,0.398490398490398,34.9118534252048
1743380229814,20:17:09.814,-1,-1,1235.16483516484,0.387390387390387,34.9118534252048
1743380229834,20:17:09.834,-1,-1,1238.82783882784,0.378954378954379,34.9118534252048
1743380229853,20:17:09.853,-1,-1,1268.86446886447,0.380730380730381,34.9118534252048
1743380229873,20:17:09.873,-1,-1,1318.68131868132,0.392274392274392,34.9118534252048
1743380229892,20:17:09.892,-1,-1,1374.35897435897,0.399378399378399,34.9118534252048
1743380229912,20:17:09.912,-1,-1,1415.38461538462,0.397158397158397,34.9118534252048
1743380229931,20:17:09.931,-1,-1,1449.81684981685,0.386058386058386,34.9118534252048
1743380229951,20:17:09.951,-1,-1,1469.59706959707,0.378066378066378,34.9118534252048
1743380229970,20:17:09.970,-1,-1,1479.12087912088,0.381174381174381,34.9118534252048
1743380229990,20:17:09.990,-1,-1,1492.30769230769,0.394050394050394,34.9118534252048
1743380230009,20:17:10.009,-1,-1,1498.9010989011,0.399378399378399,34.9118534252048
1743380230029,20:17:10.029,-1,-1,1510.62271062271,0.396714396714397,34.9118534252048
1743380230048,20:17:10.048,-1,-1,1525.27472527473,0.383838383838384,34.9118534252048
1743380230068,20:17:10.068,-1,-1,1540.65934065934,0.377622377622378,34.9118534252048
1743380230087,20:17:10.087,-1,-1,1536.26373626374,0.382062382062382,34.9118534252048
1743380230107,20:17:10.107,-1,-1,1537.72893772894,0.394938394938395,34.9118534252048
1743380230126,20:17:10.126,-1,-1,1519.41391941392,0.398490398490398,34.9118534252048
1743380230146,20:17:10.146,-1,-1,1493.77289377289,0.395382395382395,34.9118534252048
1743380230165,20:17:10.165,-1,-1,1468.86446886447,0.382062382062382,34.9118534252048
1743380230185,20:17:10.185,-1,-1,1443.95604395604,0.377622377622378,34.9118534252048
1743380230204,20:17:10.204,-1,-1,1434.43223443223,0.382506382506382,34.9118534252048
1743380230224,20:17:10.224,-1,-1,1449.08424908425,0.395826395826396,34.9118534252048
1743380230243,20:17:10.243,-1,-1,1450.54945054945,0.398046398046398,34.9118534252048
1743380230263,20:17:10.263,-1,-1,1428.57142857143,0.394050394050394,34.9118534252048
1743380230282,20:17:10.282,-1,-1,1413.91941391941,0.380730380730381,34.9118534252048
1743380230302,20:17:10.302,-1,-1,1407.32600732601,0.377178377178377,34.9118534252048
1743380230321,20:17:10.321,-1,-1,1395.6043956044,0.383394383394383,34.9118534252048
1743380230341,20:17:10.341,-1,-1,1378.02197802198,0.396270396270396,34.9118534252048
1743380230360,20:17:10.360,-1,-1,1358.24175824176,0.398046398046398,34.9118534252048
1743380230380,20:17:10.380,-1,-1,1353.84615384615,0.392718392718393,34.9118534252048
1743380230399,20:17:10.399,-1,-1,1349.45054945055,0.37984237984238,34.9118534252048
1743380230419,20:17:10.419,-1,-1,1339.19413919414,0.377622377622378,34.9118534252048
1743380230438,20:17:10.438,-1,-1,1331.13553113553,0.384726384726385,34.9118534252048
1743380230458,20:17:10.458,-1,-1,1330.40293040293,0.396714396714397,34.9118534252048
1743380230477,20:17:10.477,-1,-1,1336.26373626374,0.397158397158397,34.9118534252048
1743380230497,20:17:10.497,-1,-1,1331.86813186813,0.39049839049839,34.9118534252048
1743380230516,20:17:10.516,-1,-1,1327.47252747253,0.378066378066378,34.9118534252048
1743380230536,20:17:10.536,-1,-1,1322.34432234432,0.377622377622378,34.9118534252048
1743380230555,20:17:10.555,-1,-1,1304.0293040293,0.386058386058386,34.9118534252048
1743380230575,20:17:10.575,-1,-1,1293.04029304029,0.396714396714397,34.9118534252048
1743380230594,20:17:10.594,-1,-1,1305.49450549451,0.396714396714397,34.9118534252048
1743380230614,20:17:10.614,-1,-1,1307.69230769231,0.388722388722389,34.9118534252048
1743380230633,20:17:10.633,-1,-1,1303.2967032967,0.377178377178377,34.9118534252048
1743380230653,20:17:10.653,-1,-1,1295.2380952381,0.377622377622378,34.9118534252048
1743380230672,20:17:10.672,-1,-1,1290.10989010989,0.387390387390387,34.9118534252048
1743380230692,20:17:10.692,-1,-1,1280.58608058608,0.396714396714397,34.9118534252048
1743380230711,20:17:10.711,-1,-1,1279.12087912088,0.395826395826396,34.9118534252048
1743380230731,20:17:10.731,-1,-1,1271.79487179487,0.386058386058386,34.9118534252048
1743380230750,20:17:10.750,-1,-1,1273.99267399267,0.375846375846376,34.9118534252048
1743380230770,20:17:10.770,-1,-1,1293.77289377289,0.377178377178377,34.9118534252048
1743380230789,20:17:10.789,-1,-1,1341.39194139194,0.387834387834388,34.9118534252048
1743380230809,20:17:10.809,-1,-1,1397.8021978022,0.395826395826396,34.9118534252048
1743380230828,20:17:10.828,-1,-1,1435.89743589744,0.394050394050394,34.9118534252048
1743380230848,20:17:10.848,-1,-1,1482.05128205128,0.383838383838384,34.9118534252048
1743380230867,20:17:10.867,-1,-1,1531.86813186813,0.375402375402375,34.9118534252048
1743380230887,20:17:10.887,-1,-1,1556.77655677656,0.378066378066378,34.9118534252048
1743380230906,20:17:10.906,-1,-1,1579.48717948718,0.39005439005439,34.9118534252048
1743380230926,20:17:10.926,-1,-1,1600,0.395826395826396,34.9118534252048
1743380230945,20:17:10.945,-1,-1,1621.24542124542,0.394050394050394,34.9118534252048
1743380230965,20:17:10.965,-1,-1,1638.82783882784,0.381618381618382,34.9118534252048
1743380230984,20:17:10.984,-1,-1,1654.94505494505,0.374514374514374,34.9118534252048
1743380231004,20:17:11.004,-1,-1,1673.26007326007,0.377622377622378,34.9118534252048
1743380231023,20:17:11.023,-1,-1,1679.85347985348,0.39049839049839,34.9118534252048
1743380231043,20:17:11.043,-1,-1,1663.00366300366,0.394938394938395,34.9118534252048
1743380231062,20:17:11.062,-1,-1,1635.89743589744,0.392274392274392,34.9118534252048
1743380231082,20:17:11.082,-1,-1,1603.663003663,0.379398379398379,34.9118534252048
1743380231101,20:17:11.101,-1,-1,1583.15018315018,0.373626373626374,34.9118534252048
1743380231121,20:17:11.121,-1,-1,1567.76556776557,0.378066378066378,34.9118534252048
1743380231140,20:17:11.140,-1,-1,1550.18315018315,0.391386391386391,34.9118534252048
1743380231160,20:17:11.160,-1,-1,1530.40293040293,0.394494394494394,34.9118534252048
1743380231179,20:17:11.179,-1,-1,1513.55311355311,0.390942390942391,34.9118534252048
1743380231199,20:17:11.199,-1,-1,1483.51648351648,0.377622377622378,34.9118534252048
1743380231218,20:17:11.218,-1,-1,1474.72527472527,0.373182373182373,34.9118534252048
1743380231238,20:17:11.238,-1,-1,1465.93406593407,0.378954378954379,34.9118534252048
1743380231257,20:17:11.257,-1,-1,1454.21245421245,0.391830391830392,34.9118534252048
1743380231277,20:17:11.277,-1,-1,1430.76923076923,0.393606393606394,34.9118534252048
1743380231296,20:17:11.296,-1,-1,1415.38461538462,0.389166389166389,34.9118534252048
1743380231316,20:17:11.316,-1,-1,1391.94139194139,0.375402375402375,34.9118534252048
1743380231335,20:17:11.335,-1,-1,1377.28937728938,0.372738372738373,34.9118534252048
1743380231355,20:17:11.355,-1,-1,1377.28937728938,0.372738372738373,34.9118534252048
1743380231374,20:17:11.374,-1,-1,1353.84615384615,0.391830391830392,34.9118534252048
1743380231394,20:17:11.394,-1,-1,1344.32234432234,0.393162393162393,34.9118534252048
1743380231413,20:17:11.413,-1,-1,1335.53113553114,0.387390387390387,34.9118534252048
1743380231433,20:17:11.433,-1,-1,1334.79853479853,0.374070374070374,34.9118534252048
1743380231452,20:17:11.452,-1,-1,1331.13553113553,0.372738372738373,34.9118534252048
1743380231472,20:17:11.472,-1,-1,1317.94871794872,0.38028638028638,34.9118534252048
1743380231491,20:17:11.491,-1,-1,1324.54212454212,0.391830391830392,34.9118534252048
1743380231511,20:17:11.511,-1,-1,1327.47252747253,0.392274392274392,34.9118534252048
1743380231530,20:17:11.530,-1,-1,1312.82051282051,0.384726384726385,34.9118534252048
1743380231550,20:17:11.550,-1,-1,1301.8315018315,0.372738372738373,34.9268582294462
1743380231569,20:17:11.569,-1,-1,1293.04029304029,0.372294372294372,34.9268582294462
1743380231589,20:17:11.589,-1,-1,1290.84249084249,0.381618381618382,34.9268582294462
1743380231608,20:17:11.608,-1,-1,1279.12087912088,0.391830391830392,34.9268582294462
1743380231628,20:17:11.628,-1,-1,1276.92307692308,0.390942390942391,34.9268582294462
1743380231647,20:17:11.647,-1,-1,1262.27106227106,0.382506382506382,34.9268582294462
1743380231667,20:17:11.667,-1,-1,1245.42124542125,0.371406371406371,34.9268582294462
1743380231686,20:17:11.686,-1,-1,1248.35164835165,0.372294372294372,34.9268582294462
1743380231706,20:17:11.706,-1,-1,1284.24908424908,0.382506382506382,34.9268582294462
1743380231725,20:17:11.725,-1,-1,1350.18315018315,0.390942390942391,34.9268582294462
1743380231745,20:17:11.745,-1,-1,1436.63003663004,0.39005439005439,34.9268582294462
1743380231764,20:17:11.764,-1,-1,1523.80952380952,0.37984237984238,34.9268582294462
1743380231784,20:17:11.784,-1,-1,1589.74358974359,0.37007437007437,34.9268582294462
1743380231803,20:17:11.803,-1,-1,1627.10622710623,0.372294372294372,34.9268582294462
1743380231823,20:17:11.823,-1,-1,1646.15384615385,0.383838383838384,34.9268582294462
1743380231842,20:17:11.842,-1,-1,1654.21245421245,0.390942390942391,34.9268582294462
1743380231862,20:17:11.862,-1,-1,1658.60805860806,0.389166389166389,34.9268582294462
1743380231881,20:17:11.881,-1,-1,1668.13186813187,0.377622377622378,34.9268582294462
1743380231901,20:17:11.901,-1,-1,1679.85347985348,0.36963036963037,34.9268582294462
1743380231920,20:17:11.920,-1,-1,1673.99267399267,0.372294372294372,34.9268582294462
1743380231940,20:17:11.940,-1,-1,1657.14285714286,0.384726384726385,34.9268582294462
1743380231959,20:17:11.959,-1,-1,1627.83882783883,0.39049839049839,34.9268582294462
1743380231979,20:17:11.979,-1,-1,1606.59340659341,0.387834387834388,34.9268582294462
1743380231998,20:17:11.998,-1,-1,1598.5347985348,0.374958374958375,34.9268582294462
1743380232018,20:17:12.018,-1,-1,1598.5347985348,0.368742368742369,34.9268582294462
1743380232037,20:17:12.037,-1,-1,1590.47619047619,0.372294372294372,34.9268582294462
1743380232057,20:17:12.057,-1,-1,1580.95238095238,0.385614385614386,34.9268582294462
1743380232076,20:17:12.076,-1,-1,1569.23076923077,0.38961038961039,34.9268582294462
1743380232096,20:17:12.096,-1,-1,1564.83516483516,0.386502386502386,34.9268582294462
1743380232115,20:17:12.115,-1,-1,1544.32234432234,0.373182373182373,34.9268582294462
1743380232135,20:17:12.135,-1,-1,1520.87912087912,0.367854367854368,34.9268582294462
1743380232154,20:17:12.154,-1,-1,1498.1684981685,0.372738372738373,34.9268582294462
1743380232174,20:17:12.174,-1,-1,1465.93406593407,0.386058386058386,34.9268582294462
1743380232194,20:17:12.193,-1,-1,1445.42124542125,0.388722388722389,34.9268582294462
1743380232213,20:17:12.213,-1,-1,1429.30402930403,0.384282384282384,34.9268582294462
1743380232233,20:17:12.232,-1,-1,1403.663003663,0.370962370962371,34.9268582294462
1743380232252,20:17:12.252,-1,-1,1379.48717948718,0.367410367410367,34.9268582294462
1743380232272,20:17:12.271,-1,-1,1364.83516483516,0.373626373626374,34.9268582294462
1743380232291,20:17:12.291,-1,-1,1382.41758241758,0.386502386502386,34.9268582294462
1743380232311,20:17:12.310,-1,-1,1389.01098901099,0.387834387834388,34.9268582294462
1743380232330,20:17:12.330,-1,-1,1384.61538461538,0.382950382950383,34.9268582294462
1743380232350,20:17:12.350,-1,-1,1370.69597069597,0.369186369186369,34.9268582294462
1743380232369,20:17:12.369,-1,-1,1356.77655677656,0.366966366966367,34.9268582294462
1743380232389,20:17:12.389,-1,-1,1350.91575091575,0.374070374070374,34.9268582294462
1743380232408,20:17:12.408,-1,-1,1339.92673992674,0.386058386058386,34.9268582294462
1743380232428,20:17:12.428,-1,-1,1325.27472527473,0.386946386946387,34.9268582294462
1743380232447,20:17:12.447,-1,-1,1303.2967032967,0.38028638028638,34.9268582294462
1743380232467,20:17:12.467,-1,-1,1289.37728937729,0.367854367854368,34.9268582294462
1743380232486,20:17:12.486,-1,-1,1291.57509157509,0.366966366966367,34.9268582294462
1743380232506,20:17:12.506,-1,-1,1322.34432234432,0.374958374958375,34.9268582294462
1743380232525,20:17:12.525,-1,-1,1372.89377289377,0.386058386058386,34.9268582294462
1743380232545,20:17:12.545,-1,-1,1456.41025641026,0.386058386058386,34.93686140317
1743380232564,20:17:12.564,-1,-1,1545.78754578755,0.378066378066378,34.93686140317
1743380232584,20:17:12.584,-1,-1,1630.76923076923,0.366522366522366,34.93686140317
1743380232603,20:17:12.603,-1,-1,1683.51648351648,0.366966366966367,34.93686140317
1743380232623,20:17:12.623,-1,-1,1717.21611721612,0.376290376290376,34.93686140317
1743380232642,20:17:12.642,-1,-1,1717.21611721612,0.385614385614386,34.93686140317
1743380232662,20:17:12.662,-1,-1,1720.87912087912,0.384726384726385,34.93686140317
1743380232681,20:17:12.681,-1,-1,1720.87912087912,0.375402375402375,34.93686140317
1743380232701,20:17:12.701,-1,-1,1728.20512820513,0.365190365190365,34.93686140317
1743380232720,20:17:12.720,-1,-1,1738.46153846154,0.366966366966367,34.93686140317
1743380232740,20:17:12.740,-1,-1,1736.99633699634,0.377178377178377,34.93686140317
1743380232759,20:17:12.759,-1,-1,1705.49450549451,0.385170385170385,34.93686140317
1743380232779,20:17:12.779,-1,-1,1659.34065934066,0.383838383838384,34.93686140317
1743380232798,20:17:12.798,-1,-1,1630.03663003663,0.373182373182373,34.93686140317
1743380232818,20:17:12.818,-1,-1,1610.98901098901,0.364302364302364,34.93686140317
1743380232837,20:17:12.837,-1,-1,1586.81318681319,0.366522366522366,34.93686140317
1743380232857,20:17:12.857,-1,-1,1565.56776556777,0.378066378066378,34.93686140317
1743380232876,20:17:12.876,-1,-1,1532.60073260073,0.384726384726385,34.93686140317
1743380232896,20:17:12.896,-1,-1,1508.42490842491,0.382506382506382,34.93686140317
1743380232915,20:17:12.915,-1,-1,1482.78388278388,0.37051837051837,34.93686140317
1743380232935,20:17:12.935,-1,-1,1472.52747252747,0.363414363414363,34.93686140317
1743380232954,20:17:12.954,-1,-1,1482.05128205128,0.366522366522366,34.93686140317
1743380232974,20:17:12.974,-1,-1,1481.31868131868,0.379398379398379,34.93686140317
1743380232993,20:17:12.993,-1,-1,1459.34065934066,0.384282384282384,34.93686140317
1743380233013,20:17:13.013,64,-1,1418.31501831502,0.381618381618382,34.93686140317
1743380233032,20:17:13.032,64,-1,1380.21978021978,0.368298368298368,34.93686140317
1743380233052,20:17:13.052,64,-1,1356.04395604396,0.362526362526363,34.93686140317
1743380233071,20:17:13.071,64,-1,1352.38095238095,0.366522366522366,34.93686140317
1743380233091,20:17:13.091,64,-1,1350.18315018315,0.37984237984238,34.93686140317
1743380233110,20:17:13.110,64,-1,1340.65934065934,0.383394383394383,34.93686140317
1743380233130,20:17:13.130,64,-1,1327.47252747253,0.37984237984238,34.93686140317
1743380233149,20:17:13.149,64,-1,1333.33333333333,0.366078366078366,34.93686140317
1743380233169,20:17:13.169,64,-1,1333.33333333333,0.362082362082362,34.93686140317
1743380233188,20:17:13.188,64,-1,1334.79853479853,0.366966366966367,34.93686140317
1743380233208,20:17:13.208,64,-1,1326.73992673993,0.38028638028638,34.93686140317
1743380233227,20:17:13.227,64,-1,1308.42490842491,0.382950382950383,34.93686140317
1743380233247,20:17:13.247,64,-1,1290.10989010989,0.378510378510378,34.93686140317
1743380233266,20:17:13.266,64,-1,1265.20146520147,0.364746364746365,34.93686140317
1743380233286,20:17:13.286,64,-1,1251.28205128205,0.361638361638362,34.93686140317
1743380233305,20:17:13.305,64,-1,1225.64102564103,0.367854367854368,34.93686140317
1743380233325,20:17:13.325,64,-1,1215.38461538462,0.38028638028638,34.93686140317
1743380233344,20:17:13.344,64,-1,1215.38461538462,0.38028638028638,34.93686140317
1743380233364,20:17:13.364,64,-1,1344.32234432234,0.375846375846376,34.93686140317
1743380233383,20:17:13.383,64,-1,1461.53846153846,0.362970362970363,34.93686140317
1743380233403,20:17:13.403,64,-1,1568.49816849817,0.361194361194361,34.93686140317
1743380233422,20:17:13.422,64,-1,1649.81684981685,0.368742368742369,34.93686140317
1743380233442,20:17:13.442,64,-1,1700.3663003663,0.38028638028638,34.93686140317
1743380233461,20:17:13.461,64,-1,1738.46153846154,0.380730380730381,34.93686140317
1743380233481,20:17:13.481,64,-1,1786.08058608059,0.373626373626374,34.93686140317
1743380233500,20:17:13.500,64,-1,1824.90842490842,0.361194361194361,34.93686140317
1743380233520,20:17:13.520,64,-1,1854.21245421245,0.360750360750361,34.93686140317
1743380233539,20:17:13.539,64,-1,1865.20146520146,0.36963036963037,34.9418629813008
1743380233559,20:17:13.559,64,-1,1856.41025641026,0.38028638028638,34.9418629813008
1743380233578,20:17:13.578,64,-1,1827.83882783883,0.37984237984238,34.9418629813008
1743380233598,20:17:13.598,64,-1,1805.12820512821,0.371406371406371,34.9418629813008
1743380233617,20:17:13.617,64,-1,1763.36996336996,0.35986235986236,34.9418629813008
1743380233637,20:17:13.637,64,-1,1698.9010989011,0.360750360750361,34.9418629813008
1743380233656,20:17:13.656,64,-1,1653.47985347985,0.37051837051837,34.9418629813008
1743380233676,20:17:13.676,64,-1,1630.76923076923,0.37984237984238,34.9418629813008
1743380233695,20:17:13.695,64,-1,1614.65201465201,0.378510378510378,34.9418629813008
1743380233715,20:17:13.715,64,-1,1596.336996337,0.368742368742369,34.9418629813008
1743380233734,20:17:13.734,64,-1,1567.76556776557,0.358974358974359,34.9418629813008
1743380233754,20:17:13.754,64,-1,1544.32234432234,0.360750360750361,34.9418629813008
1743380233773,20:17:13.773,64,-1,1534.79853479853,0.371406371406371,34.9418629813008
1743380233793,20:17:13.793,64,-1,1506.95970695971,0.379398379398379,34.9418629813008
1743380233812,20:17:13.812,64,-1,1470.32967032967,0.377178377178377,34.9418629813008
1743380233832,20:17:13.832,64,-1,1430.03663003663,0.366522366522366,34.9418629813008
1743380233851,20:17:13.851,64,-1,1402.1978021978,0.358086358086358,34.9418629813008
1743380233871,20:17:13.871,64,-1,1371.42857142857,0.360750360750361,34.9418629813008
1743380233890,20:17:13.890,64,-1,1344.32234432234,0.372294372294372,34.9418629813008
1743380233910,20:17:13.910,64,-1,1321.61172161172,0.378510378510378,34.9418629813008
1743380233929,20:17:13.929,64,-1,1309.15750915751,0.376290376290376,34.9418629813008
1743380233949,20:17:13.949,64,-1,1293.77289377289,0.363858363858364,34.9418629813008
1743380233968,20:17:13.968,67,-1,1277.65567765568,0.357198357198357,34.9418629813008
1743380233988,20:17:13.988,67,-1,1273.99267399267,0.360750360750361,34.9418629813008
1743380234007,20:17:14.007,67,-1,1278.38827838828,0.373626373626374,34.9418629813008
1743380234027,20:17:14.027,67,-1,1274.72527472527,0.377622377622378,34.9418629813008
1743380234046,20:17:14.046,67,-1,1260.80586080586,0.374958374958375,34.9418629813008
1743380234066,20:17:14.066,67,-1,1249.08424908425,0.362082362082362,34.9418629813008
1743380234085,20:17:14.085,67,-1,1243.22344322344,0.356310356310356,34.9418629813008
1743380234105,20:17:14.105,67,-1,1229.30402930403,0.360750360750361,34.9418629813008
1743380234124,20:17:14.124,67,-1,1230.76923076923,0.373626373626374,34.9418629813008
1743380234144,20:17:14.144,67,-1,1236.63003663004,0.377178377178377,34.9418629813008
1743380234163,20:17:14.163,67,-1,1227.10622710623,0.373182373182373,34.9418629813008
1743380234183,20:17:14.183,67,-1,1229.30402930403,0.35986235986236,34.9418629813008
1743380234202,20:17:14.202,67,-1,1223.44322344322,0.356310356310356,34.9418629813008
1743380234222,20:17:14.222,67,-1,1208.05860805861,0.362082362082362,34.9418629813008
1743380234241,20:17:14.241,67,-1,1207.32600732601,0.374958374958375,34.9418629813008
1743380234261,20:17:14.261,67,-1,1214.65201465201,0.376734376734377,34.9418629813008
1743380234280,20:17:14.280,67,-1,1254.21245421245,0.371850371850372,34.9418629813008
1743380234300,20:17:14.300,67,-1,1353.84615384615,0.358530358530358,34.9418629813008
1743380234319,20:17:14.319,67,-1,1457.87545787546,0.355866355866356,34.9418629813008
1743380234339,20:17:14.339,67,-1,1547.98534798535,0.362526362526363,34.9418629813008
1743380234358,20:17:14.358,67,-1,1613.91941391941,0.374514374514374,34.9418629813008
1743380234378,20:17:14.378,67,-1,1661.53846153846,0.375402375402375,34.9418629813008
1743380234397,20:17:14.397,67,-1,1685.71428571429,0.369186369186369,34.9418629813008
1743380234417,20:17:14.417,67,-1,1705.49450549451,0.356310356310356,34.9418629813008
1743380234436,20:17:14.436,67,-1,1723.80952380952,0.354978354978355,34.9418629813008
1743380234456,20:17:14.456,67,-1,1736.26373626374,0.362970362970363,34.9418629813008
1743380234475,20:17:14.475,67,-1,1752.38095238095,0.374514374514374,34.9418629813008
1743380234495,20:17:14.495,67,-1,1751.64835164835,0.374514374514374,34.9418629813008
1743380234514,20:17:14.514,67,-1,1739.19413919414,0.366966366966367,34.9418629813008
1743380234534,20:17:14.534,67,-1,1705.49450549451,0.355422355422355,34.9418629813008
1743380234553,20:17:14.553,67,-1,1658.60805860806,0.354978354978355,34.9418629813008
1743380234573,20:17:14.573,67,-1,1602.9304029304,0.363858363858364,34.9418629813008
1743380234592,20:17:14.592,67,-1,1569.23076923077,0.374070374070374,34.9418629813008
1743380234612,20:17:14.612,67,-1,1549.45054945055,0.373626373626374,34.9418629813008
1743380234631,20:17:14.631,67,-1,1528.20512820513,0.365190365190365,34.9418629813008
1743380234651,20:17:14.651,67,-1,1498.9010989011,0.354090354090354,34.9418629813008
1743380234670,20:17:14.670,67,-1,1465.20146520146,0.354978354978355,34.9418629813008
1743380234690,20:17:14.690,67,-1,1432.23443223443,0.365190365190365,34.9418629813008
1743380234709,20:17:14.709,67,-1,1388.27838827839,0.373626373626374,34.9418629813008
1743380234729,20:17:14.729,67,-1,1359.70695970696,0.372294372294372,34.9418629813008
1743380234748,20:17:14.748,67,-1,1337.72893772894,0.362526362526363,34.9418629813008
1743380234768,20:17:14.768,67,-1,1345.05494505494,0.353202353202353,34.9418629813008
1743380234787,20:17:14.787,67,-1,1336.99633699634,0.354978354978355,34.9418629813008
1743380234807,20:17:14.807,67,-1,1336.99633699634,0.366522366522366,34.9418629813008
1743380234826,20:17:14.826,67,-1,1333.33333333333,0.373626373626374,34.9418629813008
1743380234846,20:17:14.846,67,-1,1314.28571428571,0.371406371406371,34.9418629813008
1743380234865,20:17:14.865,67,-1,1278.38827838828,0.36030636030636,34.9418629813008
1743380234885,20:17:14.885,67,-1,1257.87545787546,0.352314352314352,34.9418629813008
1743380234904,20:17:14.904,67,-1,1256.41025641026,0.355422355422355,34.9418629813008
1743380234924,20:17:14.924,63,-1,1258.60805860806,0.367410367410367,34.9418629813008
1743380234943,20:17:14.943,63,-1,1256.41025641026,0.372738372738373,34.9418629813008
1743380234963,20:17:14.963,63,-1,1247.61904761905,0.37051837051837,34.9418629813008
1743380234982,20:17:14.982,63,-1,1224.90842490842,0.358086358086358,34.9418629813008
1743380235002,20:17:15.002,63,-1,1201.4652014652,0.351426351426351,34.9418629813008
1743380235021,20:17:15.021,63,-1,1186.08058608059,0.355422355422355,34.9418629813008
1743380235041,20:17:15.041,63,-1,1181.68498168498,0.367854367854368,34.9418629813008
1743380235060,20:17:15.060,63,-1,1191.94139194139,0.372294372294372,34.9418629813008
1743380235080,20:17:15.080,63,-1,1197.8021978022,0.369186369186369,34.9418629813008
1743380235099,20:17:15.099,63,-1,1175.82417582418,0.355866355866356,34.9418629813008
1743380235119,20:17:15.119,63,-1,1159.70695970696,0.350982350982351,34.9418629813008
1743380235138,20:17:15.138,63,-1,1158.97435897436,0.355422355422355,34.9418629813008
1743380235158,20:17:15.158,63,-1,1167.76556776557,0.368742368742369,34.9418629813008
1743380235177,20:17:15.177,63,-1,1164.83516483516,0.371406371406371,34.9418629813008
1743380235197,20:17:15.197,63,-1,1160.43956043956,0.367410367410367,34.9418629813008
1743380235216,20:17:15.216,63,-1,1167.76556776557,0.354090354090354,34.9418629813008
1743380235236,20:17:15.236,63,-1,1195.6043956044,0.350538350538351,34.9418629813008
1743380235255,20:17:15.255,63,-1,1249.81684981685,0.356310356310356,34.9418629813008
1743380235275,20:17:15.275,63,-1,1323.80952380952,0.368742368742369,34.9418629813008
1743380235294,20:17:15.294,63,-1,1405.12820512821,0.37051837051837,34.9418629813008
1743380235314,20:17:15.314,63,-1,1482.78388278388,0.365190365190365,34.9418629813008
1743380235333,20:17:15.333,63,-1,1528.93772893773,0.352314352314352,34.9418629813008
1743380235353,20:17:15.353,63,-1,1528.93772893773,0.352314352314352,34.9418629813008
1743380235372,20:17:15.372,63,-1,1545.05494505494,0.357198357198357,34.9418629813008
1743380235392,20:17:15.392,63,-1,1529.67032967033,0.369186369186369,34.9418629813008
1743380235411,20:17:15.411,63,-1,1520.14652014652,0.37007437007437,34.9418629813008
1743380235431,20:17:15.431,63,-1,1529.67032967033,0.362970362970363,34.9418629813008
1743380235450,20:17:15.450,63,-1,1553.84615384615,0.350982350982351,34.9418629813008
1743380235470,20:17:15.470,63,-1,1568.49816849817,0.35009435009435,34.9418629813008
1743380235489,20:17:15.489,63,-1,1567.76556776557,0.358086358086358,34.9418629813008
1743380235509,20:17:15.509,63,-1,1545.78754578755,0.369186369186369,34.9418629813008
1743380235528,20:17:15.528,63,-1,1512.08791208791,0.368742368742369,34.9518661201
1743380235548,20:17:15.548,63,-1,1472.52747252747,0.361194361194361,34.9518661201
1743380235567,20:17:15.567,63,-1,1459.34065934066,0.34965034965035,34.9518661201
1743380235587,20:17:15.587,63,-1,1452.01465201465,0.34965034965035,34.9518661201
1743380235606,20:17:15.606,63,-1,1430.03663003663,0.358974358974359,34.9518661201
1743380235626,20:17:15.626,63,-1,1404.3956043956,0.368742368742369,34.9518661201
1743380235645,20:17:15.645,63,-1,1368.49816849817,0.367854367854368,34.9518661201
1743380235665,20:17:15.665,63,-1,1326.00732600733,0.358530358530358,34.9518661201
1743380235684,20:17:15.684,63,-1,1297.4358974359,0.348318348318348,34.9518661201
1743380235704,20:17:15.704,63,-1,1293.04029304029,0.34965034965035,34.9518661201
1743380235723,20:17:15.723,63,-1,1293.77289377289,0.36030636030636,34.9518661201
1743380235743,20:17:15.743,63,-1,1289.37728937729,0.368298368298368,34.9518661201
1743380235762,20:17:15.762,63,-1,1275.45787545788,0.366522366522366,34.9518661201
1743380235782,20:17:15.782,63,-1,1258.60805860806,0.355866355866356,34.9518661201
1743380235801,20:17:15.801,63,-1,1254.21245421245,0.347430347430347,34.9518661201
1743380235821,20:17:15.821,63,-1,1249.08424908425,0.349206349206349,34.9518661201
1743380235840,20:17:15.840,63,-1,1241.75824175824,0.361194361194361,34.9518661201
1743380235860,20:17:15.860,63,-1,1224.90842490842,0.367410367410367,34.9518661201
1743380235879,20:17:15.879,63,-1,1206.59340659341,0.365634365634366,34.9518661201
1743380235899,20:17:15.899,63,-1,1194.87179487179,0.354090354090354,34.9518661201
1743380235918,20:17:15.918,63,-1,1183.88278388278,0.346542346542347,34.9518661201
1743380235938,20:17:15.938,63,-1,1190.47619047619,0.34965034965035,34.9518661201
1743380235957,20:17:15.957,63,-1,1213.91941391941,0.362082362082362,34.9518661201
1743380235977,20:17:15.977,63,-1,1229.30402930403,0.366966366966367,34.9518661201
1743380235996,20:17:15.996,63,-1,1232.96703296703,0.364302364302364,34.9518661201
1743380236016,20:17:16.016,63,-1,1214.65201465201,0.351870351870352,34.9518661201
1743380236035,20:17:16.035,63,-1,1205.86080586081,0.346098346098346,34.9518661201
1743380236055,20:17:16.055,63,-1,1191.94139194139,0.35009435009435,34.9518661201
1743380236074,20:17:16.074,63,-1,1177.28937728938,0.362970362970363,34.9518661201
1743380236094,20:17:16.094,63,-1,1158.97435897436,0.366522366522366,34.9518661201
1743380236113,20:17:16.113,63,-1,1157.50915750916,0.362970362970363,34.9518661201
1743380236133,20:17:16.133,63,-1,1185.34798534799,0.34965034965035,34.9518661201
1743380236152,20:17:16.152,63,-1,1210.25641025641,0.345210345210345,34.9518661201
1743380236172,20:17:16.172,63,-1,1221.24542124542,0.350538350538351,34.9518661201
1743380236191,20:17:16.191,63,-1,1233.69963369963,0.363414363414363,34.9518661201
1743380236211,20:17:16.211,63,-1,1263.00366300366,0.365634365634366,34.9518661201
1743380236230,20:17:16.230,63,-1,1304.7619047619,0.361194361194361,34.9518661201
1743380236250,20:17:16.250,63,-1,1351.64835164835,0.347430347430347,34.9518661201
1743380236269,20:17:16.269,63,-1,1390.47619047619,0.344766344766345,34.9518661201
1743380236289,20:17:16.289,63,-1,1413.91941391941,0.350982350982351,34.9518661201
1743380236308,20:17:16.308,63,-1,1427.10622710623,0.363858363858364,34.9518661201
1743380236328,20:17:16.328,63,-1,1430.76923076923,0.365190365190365,34.9518661201
1743380236347,20:17:16.347,63,-1,1440.29304029304,0.359418359418359,34.9518661201
1743380236367,20:17:16.367,63,-1,1446.88644688645,0.346098346098346,34.9518661201
1743380236386,20:17:16.386,63,-1,1444.68864468864,0.344766344766345,34.9518661201
1743380236406,20:17:16.406,63,-1,1452.01465201465,0.351870351870352,34.9518661201
1743380236425,20:17:16.425,63,-1,1463.00366300366,0.363858363858364,34.9518661201
1743380236445,20:17:16.445,63,-1,1443.22344322344,0.363858363858364,34.9518661201
1743380236464,20:17:16.464,63,-1,1415.38461538462,0.357198357198357,34.9518661201
1743380236484,20:17:16.484,63,-1,1400,0.344766344766345,34.9518661201
1743380236503,20:17:16.503,63,-1,1378.02197802198,0.344766344766345,34.9518661201
1743380236523,20:17:16.523,63,-1,1364.10256410256,0.353202353202353,34.9518661201
1743380236542,20:17:16.542,63,-1,1358.24175824176,0.363858363858364,34.9518661201
1743380236562,20:17:16.562,63,-1,1352.38095238095,0.362970362970363,34.9518661201
1743380236581,20:17:16.581,63,-1,1342.85714285714,0.354978354978355,34.9518661201
1743380236601,20:17:16.601,70,-1,1328.93772893773,0.343878343878344,34.9518661201
1743380236620,20:17:16.620,70,-1,1325.27472527473,0.344766344766345,34.9518661201
1743380236640,20:17:16.640,70,-1,1321.61172161172,0.354534354534355,34.9518661201
1743380236659,20:17:16.659,70,-1,1307.69230769231,0.363414363414363,34.9518661201
1743380236679,20:17:16.679,70,-1,1287.17948717949,0.362082362082362,34.9518661201
1743380236698,20:17:16.698,70,-1,1270.32967032967,0.352314352314352,34.9518661201
1743380236718,20:17:16.718,70,-1,1257.87545787546,0.342546342546343,34.9518661201
1743380236737,20:17:16.737,70,-1,1246.88644688645,0.344322344322344,34.9518661201
1743380236757,20:17:16.757,70,-1,1227.83882783883,0.355422355422355,34.9518661201
1743380236776,20:17:16.776,70,-1,1220.51282051282,0.362526362526363,34.9518661201
1743380236796,20:17:16.796,70,-1,1229.30402930403,0.361194361194361,34.9518661201
1743380236815,20:17:16.815,70,-1,1244.68864468864,0.35009435009435,34.9518661201
1743380236835,20:17:16.835,70,-1,1252.74725274725,0.342102342102342,34.9518661201
1743380236854,20:17:16.854,70,-1,1254.94505494505,0.344766344766345,34.9518661201
1743380236874,20:17:16.874,70,-1,1249.81684981685,0.356754356754357,34.9518661201
1743380236893,20:17:16.893,70,-1,1245.42124542125,0.362526362526363,34.9518661201
1743380236913,20:17:16.913,70,-1,1242.49084249084,0.36030636030636,34.9518661201
1743380236932,20:17:16.932,70,-1,1243.22344322344,0.347874347874348,34.9518661201
1743380236952,20:17:16.952,70,-1,1238.82783882784,0.341214341214341,34.9518661201
1743380236971,20:17:16.971,70,-1,1231.50183150183,0.344322344322344,34.9518661201
1743380236991,20:17:16.991,70,-1,1224.90842490842,0.357198357198357,34.9518661201
1743380237010,20:17:17.010,70,-1,1212.45421245421,0.361638361638362,34.9518661201
1743380237030,20:17:17.030,70,-1,1213.18681318681,0.358974358974359,34.9518661201
1743380237049,20:17:17.049,70,-1,1213.18681318681,0.346098346098346,34.9518661201
1743380237069,20:17:17.069,70,-1,1221.97802197802,0.340770340770341,34.9518661201
1743380237088,20:17:17.088,70,-1,1217.58241758242,0.345210345210345,34.9518661201
1743380237108,20:17:17.108,70,-1,1227.10622710623,0.358086358086358,34.9518661201
1743380237127,20:17:17.127,70,-1,1254.21245421245,0.361194361194361,34.9518661201
1743380237147,20:17:17.147,70,-1,1288.64468864469,0.357642357642358,34.9518661201
1743380237166,20:17:17.166,70,-1,1317.94871794872,0.344322344322344,34.9518661201
1743380237186,20:17:17.186,70,-1,1345.05494505494,0.34032634032634,34.9518661201
1743380237205,20:17:17.205,70,-1,1372.89377289377,0.345654345654346,34.9518661201
1743380237225,20:17:17.225,70,-1,1400,0.358530358530358,34.9518661201
1743380237244,20:17:17.244,70,-1,1398.5347985348,0.36030636030636,34.9518661201
1743380237264,20:17:17.264,70,-1,1381.68498168498,0.355422355422355,34.9518661201
1743380237283,20:17:17.283,70,-1,1376.55677655678,0.342102342102342,34.9518661201
1743380237303,20:17:17.303,70,-1,1372.16117216117,0.339438339438339,34.9518661201
1743380237322,20:17:17.322,70,-1,1397.8021978022,0.346098346098346,34.9518661201
1743380237342,20:17:17.342,70,-1,1397.8021978022,0.346098346098346,34.9518661201
1743380237361,20:17:17.361,70,-1,1431.50183150183,0.359418359418359,34.9518661201
1743380237381,20:17:17.381,70,-1,1423.44322344322,0.353646353646354,34.9518661201
1743380237400,20:17:17.400,70,-1,1405.86080586081,0.341214341214341,34.9518661201
1743380237420,20:17:17.420,70,-1,1383.15018315018,0.339438339438339,34.9518661201
1743380237439,20:17:17.439,73,-1,1366.30036630037,0.347430347430347,34.9518661201
1743380237459,20:17:17.459,73,-1,1361.17216117216,0.358974358974359,34.9518661201
1743380237478,20:17:17.478,73,-1,1352.38095238095,0.358974358974359,34.9518661201
1743380237498,20:17:17.498,73,-1,1339.19413919414,0.351870351870352,34.9518661201
1743380237517,20:17:17.517,73,-1,1335.53113553114,0.339438339438339,34.9718723278493
1743380237537,20:17:17.537,73,-1,1335.53113553114,0.33988233988234,34.9718723278493
1743380237556,20:17:17.556,73,-1,1330.40293040293,0.348762348762349,34.9718723278493
1743380237576,20:17:17.576,73,-1,1335.53113553114,0.358974358974359,34.9718723278493
1743380237595,20:17:17.595,73,-1,1327.47252747253,0.358086358086358,34.9718723278493
1743380237615,20:17:17.615,73,-1,1306.22710622711,0.34965034965035,34.9718723278493
1743380237634,20:17:17.634,73,-1,1290.84249084249,0.338994338994339,34.9718723278493
1743380237654,20:17:17.654,73,-1,1282.05128205128,0.33988233988234,34.9718723278493
1743380237673,20:17:17.673,73,-1,1265.93406593407,0.34965034965035,34.9718723278493
1743380237693,20:17:17.693,73,-1,1246.88644688645,0.358086358086358,34.9718723278493
1743380237712,20:17:17.712,73,-1,1247.61904761905,0.356754356754357,34.9718723278493
1743380237732,20:17:17.732,73,-1,1270.32967032967,0.346986346986347,34.9718723278493
1743380237751,20:17:17.751,73,-1,1284.24908424908,0.337662337662338,34.9718723278493
1743380237771,20:17:17.771,73,-1,1277.65567765568,0.339438339438339,34.9718723278493
1743380237790,20:17:17.790,73,-1,1266.66666666667,0.350982350982351,34.9718723278493
1743380237810,20:17:17.810,73,-1,1259.34065934066,0.357642357642358,34.9718723278493
1743380237829,20:17:17.829,73,-1,1252.74725274725,0.355866355866356,34.9718723278493
1743380237849,20:17:17.849,73,-1,1243.95604395604,0.344766344766345,34.9718723278493
1743380237868,20:17:17.868,73,-1,1230.76923076923,0.336774336774337,34.9718723278493
1743380237888,20:17:17.888,73,-1,1218.31501831502,0.33988233988234,34.9718723278493
1743380237907,20:17:17.907,73,-1,1209.52380952381,0.351870351870352,34.9718723278493
1743380237927,20:17:17.927,73,-1,1209.52380952381,0.357198357198357,34.9718723278493
1743380237946,20:17:17.946,73,-1,1212.45421245421,0.354978354978355,34.9718723278493
1743380237966,20:17:17.966,73,-1,1214.65201465201,0.342546342546343,34.9718723278493
1743380237985,20:17:17.985,73,-1,1208.05860805861,0.335886335886336,34.9718723278493
1743380238005,20:17:18.005,73,-1,1202.1978021978,0.33988233988234,34.9718723278493
1743380238024,20:17:18.024,73,-1,1206.59340659341,0.352758352758353,34.9718723278493
1743380238044,20:17:18.044,73,-1,1218.31501831502,0.357198357198357,34.9718723278493
1743380238063,20:17:18.063,73,-1,1243.95604395604,0.354090354090354,34.9718723278493
1743380238083,20:17:18.083,73,-1,1282.78388278388,0.340770340770341,34.9718723278493
1743380238102,20:17:18.102,73,-1,1312.82051282051,0.335886335886336,34.9718723278493
1743380238122,20:17:18.122,73,-1,1336.26373626374,0.34032634032634,34.9718723278493
1743380238141,20:17:18.141,73,-1,1354.57875457875,0.353646353646354,34.9718723278493
1743380238161,20:17:18.161,73,-1,1363.36996336996,0.356310356310356,34.9718723278493
1743380238180,20:17:18.180,73,-1,1373.62637362637,0.352314352314352,34.9718723278493
1743380238200,20:17:18.200,73,-1,1380.95238095238,0.338994338994339,34.9718723278493
1743380238219,20:17:18.219,73,-1,1394.13919413919,0.335442335442335,34.9718723278493
1743380238239,20:17:18.239,73,-1,1400,0.341214341214341,34.9718723278493
1743380238258,20:17:18.258,73,-1,1413.18681318681,0.353646353646354,34.9718723278493
1743380238278,20:17:18.278,73,-1,1426.37362637363,0.355422355422355,34.9718723278493
1743380238297,20:17:18.297,73,-1,1426.37362637363,0.350538350538351,34.9718723278493
1743380238317,20:17:18.317,73,-1,1413.91941391941,0.337218337218337,34.9718723278493
1743380238336,20:17:18.336,73,-1,1400.7326007326,0.334998334998335,34.9718723278493
1743380238356,20:17:18.356,73,-1,1395.6043956044,0.342102342102342,34.9718723278493
1743380238375,20:17:18.375,72,-1,1397.0695970696,0.354090354090354,34.9718723278493
1743380238395,20:17:18.395,72,-1,1399.2673992674,0.354978354978355,34.9718723278493
1743380238414,20:17:18.414,72,-1,1389.01098901099,0.348762348762349,34.9718723278493
1743380238434,20:17:18.434,72,-1,1351.64835164835,0.335886335886336,34.9718723278493
1743380238453,20:17:18.453,72,-1,1320.87912087912,0.334998334998335,34.9718723278493
1743380238473,20:17:18.473,72,-1,1307.69230769231,0.342990342990343,34.9718723278493
1743380238492,20:17:18.492,72,-1,1309.89010989011,0.353646353646354,34.9718723278493
1743380238512,20:17:18.512,72,-1,1331.13553113553,0.354090354090354,34.9618692356162
1743380238531,20:17:18.531,72,-1,1347.25274725275,0.346542346542347,34.9618692356162
1743380238551,20:17:18.551,72,-1,1356.04395604396,0.334554334554335,34.9618692356162
1743380238570,20:17:18.570,72,-1,1339.92673992674,0.334554334554335,34.9618692356162
1743380238590,20:17:18.590,72,-1,1320.87912087912,0.343878343878344,34.9618692356162
1743380238609,20:17:18.609,72,-1,1311.35531135531,0.353646353646354,34.9618692356162
1743380238629,20:17:18.629,72,-1,1299.6336996337,0.353202353202353,34.9618692356162
1743380238648,20:17:18.648,72,-1,1293.77289377289,0.344322344322344,34.9618692356162
1743380238668,20:17:18.668,72,-1,1293.04029304029,0.333666333666334,34.9618692356162
1743380238687,20:17:18.687,72,-1,1292.30769230769,0.334554334554335,34.9618692356162
1743380238707,20:17:18.707,72,-1,1292.30769230769,0.345210345210345,34.9618692356162
1743380238726,20:17:18.726,72,-1,1282.78388278388,0.353202353202353,34.9618692356162
1743380238746,20:17:18.746,72,-1,1279.85347985348,0.351870351870352,34.9618692356162
1743380238765,20:17:18.765,72,-1,1273.99267399267,0.341658341658342,34.9618692356162
1743380238785,20:17:18.785,72,-1,1268.86446886447,0.332334332334332,34.9618692356162
1743380238804,20:17:18.804,72,-1,1242.49084249084,0.334554334554335,34.9618692356162
1743380238824,20:17:18.824,72,-1,1235.89743589744,0.345654345654346,34.9618692356162
1743380238843,20:17:18.843,72,-1,1238.82783882784,0.352314352314352,34.9618692356162
1743380238863,20:17:18.863,72,-1,1243.95604395604,0.350538350538351,34.9618692356162
1743380238882,20:17:18.882,72,-1,1238.09523809524,0.338994338994339,34.9618692356162
1743380238902,20:17:18.902,72,-1,1239.56043956044,0.331890331890332,34.9618692356162
1743380238921,20:17:18.921,72,-1,1248.35164835165,0.334554334554335,34.9618692356162
1743380238941,20:17:18.941,72,-1,1258.60805860806,0.346986346986347,34.9618692356162
1743380238960,20:17:18.960,72,-1,1263.73626373626,0.352314352314352,34.9618692356162
1743380238980,20:17:18.980,72,-1,1282.05128205128,0.34965034965035,34.9618692356162
1743380238999,20:17:18.999,72,-1,1312.08791208791,0.337218337218337,34.9618692356162
1743380239019,20:17:19.019,72,-1,1347.25274725275,0.331002331002331,34.9618692356162
1743380239038,20:17:19.038,72,-1,1380.21978021978,0.334554334554335,34.9618692356162
1743380239058,20:17:19.058,72,-1,1403.663003663,0.347430347430347,34.9618692356162
1743380239077,20:17:19.077,72,-1,1426.37362637363,0.351426351426351,34.9618692356162
1743380239097,20:17:19.097,72,-1,1439.56043956044,0.348318348318348,34.9618692356162
1743380239116,20:17:19.116,72,-1,1454.94505494505,0.334998334998335,34.9618692356162
1743380239136,20:17:19.136,72,-1,1461.53846153846,0.33011433011433,34.9618692356162
1743380239155,20:17:19.155,72,-1,1463.73626373626,0.335442335442335,34.9618692356162
1743380239175,20:17:19.175,72,-1,1463.00366300366,0.348318348318348,34.9618692356162
1743380239194,20:17:19.194,72,-1,1465.20146520146,0.350982350982351,34.9618692356162
1743380239214,20:17:19.214,72,-1,1473.99267399267,0.346542346542347,34.9618692356162
1743380239233,20:17:19.233,72,-1,1475.45787545788,0.333222333222333,34.9618692356162
1743380239253,20:17:19.253,72,-1,1454.21245421245,0.33011433011433,34.9618692356162
1743380239272,20:17:19.272,72,-1,1436.63003663004,0.335886335886336,34.9618692356162
1743380239292,20:17:19.292,72,-1,1441.02564102564,0.348762348762349,34.9618692356162
1743380239311,20:17:19.311,72,-1,1427.10622710623,0.35009435009435,34.9618692356162
1743380239331,20:17:19.331,64,-1,1424.90842490842,0.344766344766345,34.9618692356162
1743380239350,20:17:19.350,64,-1,1424.90842490842,0.344766344766345,34.9618692356162
1743380239370,20:17:19.370,64,-1,1436.63003663004,0.32967032967033,34.9618692356162
1743380239389,20:17:19.389,64,-1,1413.91941391941,0.336330336330336,34.9618692356162
1743380239409,20:17:19.409,64,-1,1385.34798534799,0.348318348318348,34.9618692356162
1743380239428,20:17:19.428,64,-1,1382.41758241758,0.349206349206349,34.9618692356162
1743380239448,20:17:19.448,64,-1,1389.01098901099,0.342546342546343,34.9618692356162
1743380239467,20:17:19.467,64,-1,1389.01098901099,0.33011433011433,34.9618692356162
1743380239487,20:17:19.487,64,-1,1383.88278388278,0.329226329226329,34.9618692356162
1743380239506,20:17:19.506,64,-1,1373.62637362637,0.337662337662338,34.9668707846431
1743380239526,20:17:19.526,64,-1,1364.10256410256,0.348318348318348,34.9668707846431
1743380239545,20:17:19.545,64,-1,1356.04395604396,0.347874347874348,34.9668707846431
1743380239565,20:17:19.565,64,-1,1353.84615384615,0.34032634032634,34.9668707846431
1743380239584,20:17:19.584,64,-1,1356.04395604396,0.328782328782329,34.9668707846431
1743380239604,20:17:19.604,64,-1,1351.64835164835,0.329226329226329,34.9668707846431
1743380239623,20:17:19.623,64,-1,1334.79853479853,0.338994338994339,34.9668707846431
1743380239643,20:17:19.643,64,-1,1317.94871794872,0.348318348318348,34.9668707846431
1743380239662,20:17:19.662,64,-1,1325.27472527473,0.347874347874348,34.9668707846431
1743380239682,20:17:19.682,64,-1,1328.20512820513,0.338550338550339,34.9668707846431
1743380239701,20:17:19.701,64,-1,1336.26373626374,0.328338328338328,34.9668707846431
1743380239721,20:17:19.721,64,-1,1346.52014652015,0.32967032967033,34.9668707846431
1743380239740,20:17:19.740,64,-1,1341.39194139194,0.34032634032634,34.9668707846431
1743380239760,20:17:19.760,64,-1,1332.60073260073,0.347874347874348,34.9668707846431
1743380239779,20:17:19.779,64,-1,1325.27472527473,0.346986346986347,34.9668707846431
1743380239799,20:17:19.799,64,-1,1318.68131868132,0.335886335886336,34.9668707846431
1743380239818,20:17:19.818,64,-1,1304.0293040293,0.327006327006327,34.9668707846431
1743380239838,20:17:19.838,64,-1,1306.95970695971,0.32967032967033,34.9668707846431
1743380239857,20:17:19.857,64,-1,1297.4358974359,0.341214341214341,34.9668707846431
1743380239877,20:17:19.877,64,-1,1308.42490842491,0.347874347874348,34.9668707846431
1743380239896,20:17:19.896,64,-1,1342.85714285714,0.345654345654346,34.9668707846431
1743380239916,20:17:19.916,64,-1,1399.2673992674,0.334110334110334,34.9668707846431
1743380239935,20:17:19.935,64,-1,1473.99267399267,0.326562326562327,34.9668707846431
1743380239955,20:17:19.955,64,-1,1543.58974358974,0.32967032967033,34.9668707846431
1743380239974,20:17:19.974,64,-1,1578.75457875458,0.342546342546343,34.9668707846431
1743380239994,20:17:19.994,64,-1,1580.21978021978,0.347430347430347,34.9668707846431
1743380240013,20:17:20.013,64,-1,1581.68498168498,0.344766344766345,34.9668707846431
1743380240033,20:17:20.033,64,-1,1589.74358974359,0.331890331890332,34.9668707846431
1743380240052,20:17:20.052,64,-1,1598.5347985348,0.326118326118326,34.9668707846431
1743380240072,20:17:20.072,64,-1,1595.6043956044,0.33011433011433,34.9668707846431
1743380240091,20:17:20.091,64,-1,1591.20879120879,0.342990342990343,34.9668707846431
1743380240111,20:17:20.111,64,-1,1592.67399267399,0.346542346542347,34.9668707846431
1743380240130,20:17:20.130,64,-1,1570.69597069597,0.343434343434343,34.9668707846431
1743380240150,20:17:20.150,64,-1,1552.38095238095,0.33011433011433,34.9668707846431
1743380240169,20:17:20.169,64,-1,1534.79853479853,0.325674325674326,34.9668707846431
1743380240189,20:17:20.189,64,-1,1529.67032967033,0.330558330558331,34.9668707846431
1743380240208,20:17:20.208,64,-1,1512.08791208791,0.343434343434343,34.9668707846431
1743380240228,20:17:20.228,64,-1,1499.6336996337,0.346098346098346,34.9668707846431
1743380240247,20:17:20.247,64,-1,1485.71428571429,0.341658341658342,34.9668707846431
1743380240267,20:17:20.267,64,-1,1491.57509157509,0.328338328338328,34.9668707846431
1743380240286,20:17:20.286,64,-1,1491.57509157509,0.325230325230325,34.9668707846431
1743380240306,20:17:20.306,63,-1,1466.66666666667,0.331446331446331,34.9668707846431
1743380240325,20:17:20.325,63,-1,1447.61904761905,0.343878343878344,34.9668707846431
1743380240345,20:17:20.345,63,-1,1446.15384615385,0.345210345210345,34.9668707846431
1743380240364,20:17:20.364,63,-1,1445.42124542125,0.33988233988234,34.9668707846431
1743380240384,20:17:20.384,63,-1,1446.88644688645,0.327006327006327,34.9668707846431
1743380240403,20:17:20.403,63,-1,1438.82783882784,0.324786324786325,34.9668707846431
1743380240423,20:17:20.423,63,-1,1431.50183150183,0.332334332334332,34.9668707846431
1743380240442,20:17:20.442,63,-1,1418.31501831502,0.343878343878344,34.9668707846431
1743380240462,20:17:20.462,63,-1,1394.13919413919,0.344322344322344,34.9668707846431
1743380240481,20:17:20.481,63,-1,1353.84615384615,0.337662337662338,34.9668707846431
1743380240501,20:17:20.501,63,-1,1329.67032967033,0.325230325230325,34.9668707846431
1743380240520,20:17:20.520,63,-1,1326.73992673993,0.324786324786325,34.9668707846431
1743380240540,20:17:20.540,63,-1,1318.68131868132,0.333222333222333,34.9668707846431
1743380240559,20:17:20.559,63,-1,1313.55311355311,0.343878343878344,34.9668707846431
1743380240579,20:17:20.579,63,-1,1325.27472527473,0.343434343434343,34.9668707846431
1743380240598,20:17:20.598,63,-1,1337.72893772894,0.335442335442335,34.9668707846431
1743380240618,20:17:20.618,63,-1,1338.46153846154,0.324342324342324,34.9668707846431
1743380240637,20:17:20.637,63,-1,1335.53113553114,0.324786324786325,34.9668707846431
1743380240657,20:17:20.657,63,-1,1340.65934065934,0.334554334554335,34.9668707846431
1743380240676,20:17:20.676,63,-1,1342.85714285714,0.343434343434343,34.9668707846431
1743380240696,20:17:20.696,63,-1,1345.05494505494,0.342546342546343,34.9668707846431
1743380240715,20:17:20.715,63,-1,1328.20512820513,0.332778332778333,34.9668707846431
1743380240735,20:17:20.735,63,-1,1335.53113553114,0.323010323010323,34.9668707846431
1743380240754,20:17:20.754,63,-1,1370.69597069597,0.324786324786325,34.9668707846431
1743380240774,20:17:20.774,63,-1,1424.90842490842,0.335886335886336,34.9668707846431
1743380240793,20:17:20.793,63,-1,1494.50549450549,0.343434343434343,34.9668707846431
1743380240813,20:17:20.813,63,-1,1556.04395604396,0.342102342102342,34.9668707846431
1743380240832,20:17:20.832,63,-1,1578.75457875458,0.331002331002331,34.9668707846431
1743380240852,20:17:20.852,63,-1,1590.47619047619,0.322566322566323,34.9668707846431
1743380240871,20:17:20.871,63,-1,1605.12820512821,0.325230325230325,34.9668707846431
1743380240891,20:17:20.891,63,-1,1624.90842490842,0.337218337218337,34.9668707846431
1743380240910,20:17:20.910,63,-1,1635.89743589744,0.343434343434343,34.9668707846431
1743380240930,20:17:20.930,63,-1,1661.53846153846,0.341214341214341,34.9668707846431
1743380240949,20:17:20.949,63,-1,1694.50549450549,0.329226329226329,34.9668707846431
1743380240969,20:17:20.969,63,-1,1712.08791208791,0.322122322122322,34.9668707846431
1743380240988,20:17:20.988,63,-1,1709.89010989011,0.325674325674326,34.9668707846431
1743380241008,20:17:21.008,63,-1,1684.24908424908,0.338106338106338,34.9668707846431
1743380241027,20:17:21.027,63,-1,1660.80586080586,0.342990342990343,34.9668707846431
1743380241047,20:17:21.047,63,-1,1646.88644688645,0.33988233988234,34.9668707846431
1743380241066,20:17:21.066,63,-1,1632.23443223443,0.327006327006327,34.9668707846431
1743380241086,20:17:21.086,63,-1,1615.38461538462,0.321678321678322,34.9668707846431
1743380241105,20:17:21.105,63,-1,1602.9304029304,0.326118326118326,34.9668707846431
1743380241125,20:17:21.125,63,-1,1594.13919413919,0.338994338994339,34.9668707846431
1743380241144,20:17:21.144,63,-1,1585.34798534799,0.342102342102342,34.9668707846431
1743380241164,20:17:21.164,63,-1,1554.57875457875,0.338550338550339,34.9668707846431
1743380241183,20:17:21.183,63,-1,1528.20512820513,0.325230325230325,34.9668707846431
1743380241203,20:17:21.203,63,-1,1492.30769230769,0.320790320790321,34.9668707846431
1743380241222,20:17:21.222,63,-1,1458.60805860806,0.326562326562327,34.9668707846431
1743380241242,20:17:21.242,63,-1,1450.54945054945,0.339438339438339,34.9668707846431
1743380241261,20:17:21.261,62,-1,1445.42124542125,0.341214341214341,34.9668707846431
1743380241281,20:17:21.281,62,-1,1426.37362637363,0.337218337218337,34.9668707846431
1743380241300,20:17:21.300,62,-1,1408.79120879121,0.323454323454323,34.9668707846431
1743380241320,20:17:21.320,62,-1,1402.1978021978,0.321234321234321,34.9668707846431
1743380241339,20:17:21.339,62,-1,1402.1978021978,0.321234321234321,34.9668707846431
1743380241359,20:17:21.359,62,-1,1385.34798534799,0.33988233988234,34.9668707846431
1743380241378,20:17:21.378,62,-1,1374.35897435897,0.341214341214341,34.9668707846431
1743380241398,20:17:21.398,62,-1,1365.56776556777,0.335442335442335,34.9668707846431
1743380241417,20:17:21.417,62,-1,1350.18315018315,0.322566322566323,34.9668707846431
1743380241437,20:17:21.437,62,-1,1348.71794871795,0.320790320790321,34.9668707846431
1743380241456,20:17:21.456,62,-1,1350.91575091575,0.328782328782329,34.9668707846431
1743380241476,20:17:21.476,62,-1,1357.50915750916,0.33988233988234,34.9668707846431
1743380241495,20:17:21.495,62,-1,1349.45054945055,0.33988233988234,34.9668707846431
1743380241515,20:17:21.515,62,-1,1336.26373626374,0.332778332778333,34.9668707846431
1743380241534,20:17:21.534,62,-1,1326.00732600733,0.32034632034632,34.9668707846431
1743380241554,20:17:21.554,62,-1,1317.21611721612,0.32034632034632,34.9668707846431
1743380241573,20:17:21.573,62,-1,1328.93772893773,0.32967032967033,34.9668707846431
1743380241593,20:17:21.593,62,-1,1344.32234432234,0.339438339438339,34.9668707846431
1743380241612,20:17:21.612,62,-1,1368.49816849817,0.338994338994339,34.9668707846431
1743380241632,20:17:21.632,62,-1,1410.98901098901,0.330558330558331,34.9668707846431
1743380241651,20:17:21.651,62,-1,1476.92307692308,0.319458319458319,34.9668707846431
1743380241671,20:17:21.671,62,-1,1544.32234432234,0.32034632034632,34.9668707846431
1743380241690,20:17:21.690,62,-1,1597.8021978022,0.330558330558331,34.9668707846431
1743380241710,20:17:21.710,62,-1,1646.88644688645,0.338994338994339,34.9668707846431
1743380241729,20:17:21.729,62,-1,1684.24908424908,0.338106338106338,34.9668707846431
1743380241749,20:17:21.749,62,-1,1703.2967032967,0.328338328338328,34.9668707846431
1743380241768,20:17:21.768,62,-1,1715.01831501831,0.318570318570319,34.9668707846431
1743380241788,20:17:21.788,62,-1,1722.34432234432,0.32034632034632,34.9668707846431
1743380241807,20:17:21.807,62,-1,1722.34432234432,0.331890331890332,34.9668707846431
1743380241827,20:17:21.827,62,-1,1724.54212454212,0.338994338994339,34.9668707846431
1743380241846,20:17:21.846,62,-1,1723.80952380952,0.337218337218337,34.9668707846431
1743380241866,20:17:21.866,62,-1,1711.35531135531,0.326118326118326,34.9668707846431
1743380241885,20:17:21.885,62,-1,1687.17948717949,0.318126318126318,34.9668707846431
1743380241905,20:17:21.905,62,-1,1654.94505494505,0.320790320790321,34.9668707846431
1743380241924,20:17:21.924,62,-1,1620.51282051282,0.333222333222333,34.9668707846431
1743380241944,20:17:21.944,62,-1,1585.34798534799,0.338550338550339,34.9668707846431
1743380241963,20:17:21.963,62,-1,1556.04395604396,0.336330336330336,34.9668707846431
1743380241983,20:17:21.983,62,-1,1539.19413919414,0.323898323898324,34.9668707846431
1743380242002,20:17:22.002,62,-1,1518.68131868132,0.317238317238317,34.9668707846431
1743380242022,20:17:22.022,62,-1,1500.3663003663,0.320790320790321,34.9668707846431
1743380242041,20:17:22.041,62,-1,1486.44688644689,0.334110334110334,34.9668707846431
1743380242061,20:17:22.061,62,-1,1476.92307692308,0.338106338106338,34.9668707846431
1743380242080,20:17:22.080,62,-1,1457.14285714286,0.335442335442335,34.9668707846431
1743380242100,20:17:22.100,62,-1,1448.35164835165,0.322122322122322,34.9668707846431
1743380242119,20:17:22.119,62,-1,1432.96703296703,0.316794316794317,34.9668707846431
1743380242139,20:17:22.139,62,-1,1410.98901098901,0.321678321678322,34.9668707846431
1743380242158,20:17:22.158,62,-1,1396.336996337,0.334554334554335,34.9668707846431
1743380242178,20:17:22.178,62,-1,1385.34798534799,0.337662337662338,34.9668707846431
1743380242197,20:17:22.197,62,-1,1372.16117216117,0.333666333666334,34.9668707846431
1743380242217,20:17:22.217,63,-1,1350.91575091575,0.31990231990232,34.9668707846431
1743380242236,20:17:22.236,63,-1,1334.79853479853,0.316350316350316,34.9668707846431
1743380242256,20:17:22.256,63,-1,1320.87912087912,0.322122322122322,34.9668707846431
1743380242275,20:17:22.275,63,-1,1312.82051282051,0.334998334998335,34.9668707846431
1743380242295,20:17:22.295,63,-1,1317.21611721612,0.336774336774337,34.9668707846431
1743380242314,20:17:22.314,63,-1,1310.62271062271,0.331890331890332,34.9668707846431
1743380242334,20:17:22.334,63,-1,1307.69230769231,0.318570318570319,34.9668707846431
1743380242353,20:17:22.353,63,-1,1295.2380952381,0.316350316350316,34.9668707846431
1743380242373,20:17:22.373,63,-1,1276.19047619048,0.323010323010323,34.9668707846431
1743380242392,20:17:22.392,63,-1,1260.80586080586,0.334998334998335,34.9668707846431
1743380242412,20:17:22.412,63,-1,1240.29304029304,0.335886335886336,34.9668707846431
1743380242431,20:17:22.431,63,-1,1230.03663003663,0.33011433011433,34.9668707846431
1743380242451,20:17:22.451,63,-1,1235.16483516484,0.317238317238317,34.9668707846431
1743380242470,20:17:22.470,63,-1,1246.88644688645,0.316350316350316,34.9668707846431
1743380242490,20:17:22.490,63,-1,1272.52747252747,0.324342324342324,34.9768738652347
1743380242509,20:17:22.509,63,-1,1336.99633699634,0.334998334998335,34.9768738652347
1743380242529,20:17:22.529,63,-1,1424.90842490842,0.335442335442335,34.9768738652347
1743380242548,20:17:22.548,63,-1,1506.95970695971,0.327894327894328,34.9768738652347
1743380242568,20:17:22.568,63,-1,1574.35897435897,0.316350316350316,34.9768738652347
1743380242587,20:17:22.587,63,-1,1608.79120879121,0.315906315906316,34.9768738652347
1743380242607,20:17:22.607,63,-1,1633.69963369963,0.325230325230325,34.9768738652347
1743380242626,20:17:22.626,63,-1,1657.14285714286,0.334998334998335,34.9768738652347
1743380242646,20:17:22.646,63,-1,1661.53846153846,0.334110334110334,34.9768738652347
1743380242665,20:17:22.665,63,-1,1660.80586080586,0.325674325674326,34.9768738652347
1743380242685,20:17:22.685,63,-1,1669.59706959707,0.314574314574315,34.9768738652347
1743380242704,20:17:22.704,63,-1,1672.52747252747,0.315906315906316,34.9768738652347
1743380242724,20:17:22.724,63,-1,1643.22344322344,0.326562326562327,34.9768738652347
1743380242743,20:17:22.743,63,-1,1618.31501831502,0.334998334998335,34.9768738652347
1743380242763,20:17:22.763,63,-1,1597.0695970696,0.333222333222333,34.9768738652347
1743380242782,20:17:22.782,63,-1,1567.76556776557,0.323454323454323,34.9768738652347
1743380242802,20:17:22.802,63,-1,1533.33333333333,0.314130314130314,34.9768738652347
1743380242821,20:17:22.821,63,-1,1501.0989010989,0.316350316350316,34.9768738652347
1743380242841,20:17:22.841,63,-1,1484.24908424908,0.327894327894328,34.9768738652347
1743380242860,20:17:22.860,63,-1,1471.06227106227,0.334554334554335,34.9768738652347
1743380242880,20:17:22.880,63,-1,1453.47985347985,0.332778332778333,34.9768738652347
1743380242899,20:17:22.899,63,-1,1433.69963369963,0.321234321234321,34.9768738652347
1743380242919,20:17:22.919,63,-1,1416.84981684982,0.313242313242313,34.9768738652347
1743380242938,20:17:22.938,63,-1,1394.87179487179,0.316350316350316,34.9768738652347
1743380242958,20:17:22.958,63,-1,1373.62637362637,0.328782328782329,34.9768738652347
1743380242977,20:17:22.977,63,-1,1357.50915750916,0.334110334110334,34.9768738652347
1743380242997,20:17:22.997,63,-1,1342.85714285714,0.331446331446331,34.9768738652347
1743380243016,20:17:23.016,63,-1,1325.27472527473,0.319014319014319,34.9768738652347
1743380243036,20:17:23.036,63,-1,1301.8315018315,0.312354312354312,34.9768738652347
1743380243055,20:17:23.055,63,-1,1281.31868131868,0.316350316350316,34.9768738652347
1743380243075,20:17:23.075,63,-1,1275.45787545788,0.32967032967033,34.9768738652347
1743380243094,20:17:23.094,63,-1,1273.99267399267,0.333222333222333,34.9768738652347
1743380243114,20:17:23.114,63,-1,1264.46886446886,0.33011433011433,34.9768738652347
1743380243133,20:17:23.133,63,-1,1257.87545787546,0.316794316794317,34.9768738652347
1743380243153,20:17:23.153,63,-1,1262.27106227106,0.311910311910312,34.9768738652347
1743380243172,20:17:23.172,63,-1,1257.87545787546,0.316794316794317,34.9768738652347
1743380243192,20:17:23.192,63,-1,1248.35164835165,0.33011433011433,34.9768738652347
1743380243211,20:17:23.211,63,-1,1246.88644688645,0.332778332778333,34.9768738652347
1743380243231,20:17:23.231,63,-1,1252.74725274725,0.328338328338328,34.9768738652347
1743380243250,20:17:23.250,63,-1,1252.01465201465,0.315018315018315,34.9768738652347
1743380243270,20:17:23.270,63,-1,1227.10622710623,0.311910311910312,34.9768738652347
1743380243289,20:17:23.289,63,-1,1212.45421245421,0.317682317682318,34.9768738652347
1743380243309,20:17:23.309,63,-1,1205.86080586081,0.330558330558331,34.9768738652347
1743380243328,20:17:23.328,63,-1,1206.59340659341,0.331890331890332,34.9768738652347
1743380243348,20:17:23.348,63,-1,1206.59340659341,0.331890331890332,34.9768738652347
1743380243367,20:17:23.367,63,-1,1224.90842490842,0.313686313686314,34.9768738652347
1743380243387,20:17:23.387,63,-1,1262.27106227106,0.311466311466311,34.9768738652347
1743380243406,20:17:23.406,63,-1,1312.82051282051,0.318570318570319,34.9768738652347
1743380243426,20:17:23.426,63,-1,1375.82417582418,0.330558330558331,34.9768738652347
1743380243445,20:17:23.445,63,-1,1431.50183150183,0.331002331002331,34.9768738652347
1743380243465,20:17:23.465,63,-1,1487.17948717949,0.324786324786325,34.9768738652347
1743380243484,20:17:23.484,63,-1,1533.33333333333,0.312354312354312,34.9868769225432
1743380243504,20:17:23.504,63,-1,1558.24175824176,0.311466311466311,34.9868769225432
1743380243523,20:17:23.523,63,-1,1569.23076923077,0.319458319458319,34.9868769225432
1743380243543,20:17:23.543,63,-1,1583.88278388278,0.330558330558331,34.9868769225432
1743380243562,20:17:23.562,63,-1,1597.8021978022,0.33011433011433,34.9868769225432
1743380243582,20:17:23.582,63,-1,1606.59340659341,0.322566322566323,34.9868769225432
1743380243601,20:17:23.601,63,-1,1608.79120879121,0.311022311022311,34.9868769225432
1743380243621,20:17:23.621,63,-1,1606.59340659341,0.311466311466311,34.9868769225432
1743380243640,20:17:23.640,63,-1,1593.40659340659,0.320790320790321,34.9868769225432
1743380243660,20:17:23.660,63,-1,1554.57875457875,0.330558330558331,34.9868769225432
1743380243679,20:17:23.679,63,-1,1515.75091575092,0.32967032967033,34.9868769225432
1743380243699,20:17:23.699,63,-1,1490.84249084249,0.32034632034632,34.9868769225432
1743380243718,20:17:23.718,63,-1,1481.31868131868,0.31013431013431,34.9868769225432
1743380243738,20:17:23.738,63,-1,1465.20146520146,0.311466311466311,34.9868769225432
1743380243757,20:17:23.757,63,-1,1453.47985347985,0.322122322122322,34.9868769225432
1743380243777,20:17:23.777,63,-1,1434.43223443223,0.33011433011433,34.9868769225432
1743380243796,20:17:23.796,63,-1,1404.3956043956,0.328782328782329,34.9868769225432
1743380243816,20:17:23.816,63,-1,1390.47619047619,0.318126318126318,34.9868769225432
1743380243835,20:17:23.835,63,-1,1372.16117216117,0.309246309246309,34.9868769225432
1743380243855,20:17:23.855,63,-1,1339.92673992674,0.311466311466311,34.9868769225432
1743380243874,20:17:23.874,63,-1,1315.01831501831,0.323454323454323,34.9868769225432
1743380243894,20:17:23.894,63,-1,1306.22710622711,0.32967032967033,34.9868769225432
1743380243913,20:17:23.913,63,-1,1290.84249084249,0.327450327450327,34.9868769225432
1743380243933,20:17:23.933,63,-1,1290.10989010989,0.315906315906316,34.9868769225432
1743380243952,20:17:23.952,70,-1,1292.30769230769,0.308358308358308,34.9868769225432
1743380243972,20:17:23.972,70,-1,1304.7619047619,0.311910311910312,34.9868769225432
1743380243991,20:17:23.991,70,-1,1305.49450549451,0.324342324342324,34.9868769225432
1743380244011,20:17:24.011,70,-1,1284.98168498168,0.328782328782329,34.9868769225432
1743380244030,20:17:24.030,70,-1,1280.58608058608,0.326118326118326,34.9868769225432
1743380244050,20:17:24.050,70,-1,1285.71428571429,0.313686313686314,34.9868769225432
1743380244069,20:17:24.069,70,-1,1284.98168498168,0.307470307470307,34.9868769225432
1743380244089,20:17:24.089,70,-1,1276.19047619048,0.311910311910312,34.9868769225432
1743380244108,20:17:24.108,70,-1,1264.46886446886,0.325230325230325,34.9868769225432
1743380244128,20:17:24.128,70,-1,1257.87545787546,0.328782328782329,34.9868769225432
1743380244147,20:17:24.147,70,-1,1246.88644688645,0.325230325230325,34.9868769225432
1743380244167,20:17:24.167,70,-1,1232.96703296703,0.311466311466311,34.9868769225432
1743380244186,20:17:24.186,70,-1,1220.51282051282,0.307026307026307,34.9868769225432
1743380244206,20:17:24.206,70,-1,1219.04761904762,0.312354312354312,34.9868769225432
1743380244225,20:17:24.225,70,-1,1208.05860805861,0.325674325674326,34.9868769225432
1743380244245,20:17:24.245,70,-1,1205.12820512821,0.327894327894328,34.9868769225432
1743380244264,20:17:24.264,70,-1,1221.97802197802,0.323454323454323,34.9868769225432
1743380244284,20:17:24.284,70,-1,1263.73626373626,0.31013431013431,34.9868769225432
1743380244303,20:17:24.303,70,-1,1320.14652014652,0.307026307026307,34.9868769225432
1743380244323,20:17:24.323,70,-1,1377.28937728938,0.313686313686314,34.9868769225432
1743380244342,20:17:24.342,70,-1,1426.37362637363,0.326562326562327,34.9868769225432
1743380244362,20:17:24.362,70,-1,1471.79487179487,0.327894327894328,34.9868769225432
1743380244381,20:17:24.381,70,-1,1512.08791208791,0.322566322566323,34.9868769225432
1743380244401,20:17:24.401,70,-1,1537.72893772894,0.309246309246309,34.9868769225432
1743380244420,20:17:24.420,70,-1,1550.91575091575,0.307914307914308,34.9868769225432
1743380244440,20:17:24.440,70,-1,1552.38095238095,0.315462315462315,34.9868769225432
1743380244459,20:17:24.459,70,-1,1550.18315018315,0.327006327006327,34.9868769225432
1743380244479,20:17:24.479,70,-1,1553.11355311355,0.327006327006327,34.9818753967993
1743380244498,20:17:24.498,70,-1,1547.98534798535,0.32034632034632,34.9818753967993
1743380244518,20:17:24.518,70,-1,1519.41391941392,0.307914307914308,34.9818753967993
1743380244537,20:17:24.537,70,-1,1479.85347985348,0.307026307026307,34.9818753967993
1743380244557,20:17:24.557,70,-1,1441.75824175824,0.315462315462315,34.9818753967993
1743380244576,20:17:24.576,70,-1,1413.91941391941,0.325674325674326,34.9818753967993
1743380244596,20:17:24.596,70,-1,1410.98901098901,0.325674325674326,34.9818753967993
1743380244615,20:17:24.615,70,-1,1404.3956043956,0.317682317682318,34.9818753967993
1743380244635,20:17:24.635,70,-1,1399.2673992674,0.306138306138306,34.9818753967993
1743380244654,20:17:24.654,70,-1,1392.67399267399,0.307026307026307,34.9818753967993
1743380244674,20:17:24.674,70,-1,1394.13919413919,0.316794316794317,34.9818753967993
1743380244693,20:17:24.693,70,-1,1386.08058608059,0.326118326118326,34.9818753967993
1743380244713,20:17:24.713,70,-1,1364.10256410256,0.325230325230325,34.9818753967993
1743380244732,20:17:24.732,70,-1,1336.99633699634,0.315906315906316,34.9818753967993
1743380244752,20:17:24.752,70,-1,1315.01831501831,0.305694305694306,34.9818753967993
1743380244771,20:17:24.771,70,-1,1296.7032967033,0.307470307470307,34.9818753967993
1743380244791,20:17:24.791,70,-1,1294.50549450549,0.318570318570319,34.9818753967993
1743380244810,20:17:24.810,70,-1,1290.10989010989,0.326118326118326,34.9818753967993
1743380244830,20:17:24.830,70,-1,1288.64468864469,0.324342324342324,34.9818753967993
1743380244849,20:17:24.849,70,-1,1282.05128205128,0.313242313242313,34.9818753967993
1743380244869,20:17:24.869,70,-1,1258.60805860806,0.304806304806305,34.9818753967993
1743380244888,20:17:24.888,68,-1,1232.96703296703,0.307470307470307,34.9818753967993
1743380244908,20:17:24.908,68,-1,1218.31501831502,0.319014319014319,34.9818753967993
1743380244927,20:17:24.927,68,-1,1216.11721611722,0.325230325230325,34.9818753967993
1743380244947,20:17:24.947,68,-1,1215.38461538462,0.323010323010323,34.9818753967993
1743380244966,20:17:24.966,68,-1,1221.97802197802,0.311022311022311,34.9818753967993
1743380244986,20:17:24.986,68,-1,1221.97802197802,0.303918303918304,34.9818753967993
1743380245005,20:17:25.005,68,-1,1224.90842490842,0.307470307470307,34.9818753967993
1743380245025,20:17:25.025,68,-1,1234.43223443223,0.31990231990232,34.9818753967993
1743380245044,20:17:25.044,68,-1,1235.16483516484,0.324786324786325,34.9818753967993
1743380245064,20:17:25.064,68,-1,1219.78021978022,0.322122322122322,34.9818753967993
1743380245083,20:17:25.083,68,-1,1207.32600732601,0.309246309246309,34.9818753967993
1743380245103,20:17:25.103,68,-1,1198.5347985348,0.303918303918304,34.9818753967993
1743380245122,20:17:25.122,68,-1,1199.2673992674,0.307914307914308,34.9818753967993
1743380245142,20:17:25.142,68,-1,1195.6043956044,0.321234321234321,34.9818753967993
1743380245161,20:17:25.161,68,-1,1194.87179487179,0.324342324342324,34.9818753967993
1743380245181,20:17:25.181,68,-1,1210.25641025641,0.320790320790321,34.9818753967993
1743380245200,20:17:25.200,68,-1,1247.61904761905,0.307470307470307,34.9818753967993
1743380245220,20:17:25.220,68,-1,1301.8315018315,0.303474303474303,34.9818753967993
1743380245239,20:17:25.239,68,-1,1350.18315018315,0.308802308802309,34.9818753967993
1743380245259,20:17:25.259,68,-1,1397.0695970696,0.321678321678322,34.9818753967993
1743380245278,20:17:25.278,68,-1,1429.30402930403,0.323454323454323,34.9818753967993
1743380245298,20:17:25.298,68,-1,1443.95604395604,0.319014319014319,34.9818753967993
1743380245317,20:17:25.317,68,-1,1449.08424908425,0.305694305694306,34.9818753967993
1743380245337,20:17:25.337,68,-1,1449.08424908425,0.305694305694306,34.9818753967993
1743380245376,20:17:25.376,68,-1,1458.60805860806,0.322122322122322,34.9818753967993
1743380245395,20:17:25.395,68,-1,1461.53846153846,0.323010323010323,34.9818753967993
1743380245415,20:17:25.415,68,-1,1468.13186813187,0.317238317238317,34.9818753967993
1743380245434,20:17:25.434,68,-1,1473.99267399267,0.304362304362304,34.9818753967993
1743380245454,20:17:25.454,68,-1,1462.27106227106,0.303474303474303,34.9818753967993
1743380245473,20:17:25.473,68,-1,1438.82783882784,0.310578310578311,34.9818753967993
1743380245493,20:17:25.493,68,-1,1423.44322344322,0.322122322122322,34.9868769225432
1743380245513,20:17:25.512,68,-1,1400,0.322566322566323,34.9868769225432
1743380245532,20:17:25.532,68,-1,1378.75457875458,0.315018315018315,34.9868769225432
1743380245552,20:17:25.551,68,-1,1378.02197802198,0.303030303030303,34.9868769225432
1743380245571,20:17:25.571,68,-1,1373.62637362637,0.303030303030303,34.9868769225432
1743380245591,20:17:25.590,68,-1,1356.77655677656,0.311910311910312,34.9868769225432
1743380245610,20:17:25.610,68,-1,1326.00732600733,0.322122322122322,34.9868769225432
1743380245630,20:17:25.630,68,-1,1293.77289377289,0.321234321234321,34.9868769225432
1743380245649,20:17:25.649,68,-1,1270.32967032967,0.312798312798313,34.9868769225432
1743380245669,20:17:25.669,68,-1,1271.79487179487,0.302142302142302,34.9868769225432
1743380245688,20:17:25.688,68,-1,1276.92307692308,0.303030303030303,34.9868769225432
1743380245708,20:17:25.708,68,-1,1279.85347985348,0.313242313242313,34.9868769225432
1743380245727,20:17:25.727,68,-1,1279.85347985348,0.321678321678322,34.9868769225432
1743380245747,20:17:25.747,64,-1,1277.65567765568,0.32034632034632,34.9868769225432
1743380245766,20:17:25.766,64,-1,1268.86446886447,0.310578310578311,34.9868769225432
1743380245786,20:17:25.786,64,-1,1260.07326007326,0.301254301254301,34.9868769225432
1743380245805,20:17:25.805,64,-1,1249.08424908425,0.303030303030303,34.9868769225432
1743380245825,20:17:25.825,64,-1,1222.71062271062,0.314130314130314,34.9868769225432
1743380245844,20:17:25.844,64,-1,1198.5347985348,0.321234321234321,34.9868769225432
1743380245864,20:17:25.864,64,-1,1174.35897435897,0.319458319458319,34.9868769225432
1743380245883,20:17:25.883,64,-1,1155.31135531136,0.308358308358308,34.9868769225432
1743380245903,20:17:25.903,64,-1,1164.83516483516,0.3003663003663,34.9868769225432
1743380245922,20:17:25.922,64,-1,1180.95238095238,0.303030303030303,34.9868769225432
1743380245942,20:17:25.942,64,-1,1185.34798534799,0.315462315462315,34.9868769225432
1743380245961,20:17:25.961,64,-1,1176.55677655678,0.320790320790321,34.9868769225432
1743380245981,20:17:25.981,64,-1,1178.02197802198,0.318570318570319,34.9868769225432
1743380246000,20:17:26.000,64,-1,1188.27838827839,0.306582306582307,34.9868769225432
1743380246020,20:17:26.020,64,-1,1175.82417582418,0.2999222999223,34.9868769225432
1743380246039,20:17:26.039,64,-1,1173.62637362637,0.303474303474303,34.9868769225432
1743380246059,20:17:26.059,64,-1,1180.21978021978,0.316350316350316,34.9868769225432
1743380246078,20:17:26.078,64,-1,1187.54578754579,0.32034632034632,34.9868769225432
1743380246098,20:17:26.098,64,-1,1213.18681318681,0.317682317682318,34.9868769225432
1743380246117,20:17:26.117,64,-1,1255.67765567766,0.304806304806305,34.9868769225432
1743380246137,20:17:26.137,64,-1,1295.2380952381,0.299478299478299,34.9868769225432
1743380246156,20:17:26.156,64,-1,1334.79853479853,0.304362304362304,34.9868769225432
1743380246176,20:17:26.176,64,-1,1382.41758241758,0.317238317238317,34.9868769225432
1743380246195,20:17:26.195,64,-1,1414.65201465201,0.32034632034632,34.9868769225432
1743380246215,20:17:26.215,64,-1,1427.83882783883,0.316350316350316,34.9868769225432
1743380246234,20:17:26.234,64,-1,1431.50183150183,0.303030303030303,34.9868769225432
1743380246254,20:17:26.254,64,-1,1430.03663003663,0.299478299478299,34.9868769225432
1743380246273,20:17:26.273,64,-1,1431.50183150183,0.305250305250305,34.9868769225432
1743380246293,20:17:26.293,64,-1,1434.43223443223,0.318126318126318,34.9868769225432
1743380246312,20:17:26.312,64,-1,1423.44322344322,0.31990231990232,34.9868769225432
1743380246332,20:17:26.332,64,-1,1410.98901098901,0.315018315018315,34.9868769225432
1743380246351,20:17:26.351,64,-1,1403.663003663,0.301698301698302,34.9868769225432
1743380246371,20:17:26.371,64,-1,1390.47619047619,0.299034299034299,34.9868769225432
1743380246390,20:17:26.390,64,-1,1380.21978021978,0.306138306138306,34.9868769225432
1743380246410,20:17:26.410,64,-1,1376.55677655678,0.318126318126318,34.9868769225432
1743380246429,20:17:26.429,64,-1,1372.16117216117,0.318570318570319,34.9868769225432
1743380246449,20:17:26.449,64,-1,1372.16117216117,0.312354312354312,34.9868769225432
1743380246468,20:17:26.468,64,-1,1361.90476190476,0.2999222999223,34.9868769225432
1743380246488,20:17:26.488,64,-1,1354.57875457875,0.298590298590299,34.9868769225432
1743380246507,20:17:26.507,64,-1,1350.18315018315,0.307026307026307,34.9868769225432
1743380246527,20:17:26.527,64,-1,1338.46153846154,0.317682317682318,34.9868769225432
1743380246546,20:17:26.546,64,-1,1315.75091575092,0.317682317682318,34.9868769225432
1743380246566,20:17:26.566,64,-1,1284.98168498168,0.310578310578311,34.9868769225432
1743380246585,20:17:26.585,64,-1,1273.26007326007,0.298590298590299,34.9868769225432
1743380246605,20:17:26.605,70,-1,1271.79487179487,0.299034299034299,34.9868769225432
1743380246624,20:17:26.624,70,-1,1269.59706959707,0.307914307914308,34.9868769225432
1743380246644,20:17:26.644,70,-1,1271.79487179487,0.317682317682318,34.9868769225432
1743380246663,20:17:26.663,70,-1,1260.07326007326,0.317238317238317,34.9868769225432
1743380246683,20:17:26.683,70,-1,1253.47985347985,0.308358308358308,34.9868769225432
1743380246702,20:17:26.702,70,-1,1252.74725274725,0.298146298146298,34.9868769225432
1743380246722,20:17:26.722,70,-1,1229.30402930403,0.299034299034299,34.9868769225432
1743380246741,20:17:26.741,70,-1,1227.10622710623,0.309246309246309,34.9868769225432
1743380246761,20:17:26.761,70,-1,1223.44322344322,0.317682317682318,34.9868769225432
1743380246780,20:17:26.780,70,-1,1219.04761904762,0.316350316350316,34.9868769225432
1743380246800,20:17:26.800,70,-1,1221.97802197802,0.306138306138306,34.9868769225432
1743380246819,20:17:26.819,70,-1,1223.44322344322,0.297258297258297,34.9868769225432
1743380246839,20:17:26.839,70,-1,1223.44322344322,0.299034299034299,34.9868769225432
1743380246858,20:17:26.858,70,-1,1232.23443223443,0.310578310578311,34.9868769225432
1743380246878,20:17:26.878,70,-1,1252.74725274725,0.317682317682318,34.9868769225432
1743380246897,20:17:26.897,70,-1,1271.06227106227,0.315462315462315,34.9868769225432
1743380246917,20:17:26.917,70,-1,1287.91208791209,0.303918303918304,34.9868769225432
1743380246936,20:17:26.936,70,-1,1315.75091575092,0.296370296370296,34.9868769225432
1743380246956,20:17:26.956,70,-1,1358.24175824176,0.299478299478299,34.9868769225432
1743380246975,20:17:26.975,70,-1,1393.40659340659,0.311910311910312,34.9868769225432
1743380246995,20:17:26.995,70,-1,1421.97802197802,0.316794316794317,34.9868769225432
1743380247014,20:17:27.014,70,-1,1452.74725274725,0.314130314130314,34.9868769225432
1743380247034,20:17:27.034,70,-1,1476.92307692308,0.301698301698302,34.9868769225432
1743380247053,20:17:27.053,70,-1,1473.99267399267,0.295482295482295,34.9868769225432
1743380247073,20:17:27.073,70,-1,1463.73626373626,0.299478299478299,34.9868769225432
1743380247092,20:17:27.092,70,-1,1459.34065934066,0.312354312354312,34.9868769225432
1743380247112,20:17:27.112,70,-1,1461.53846153846,0.316350316350316,34.9868769225432
1743380247131,20:17:27.131,70,-1,1469.59706959707,0.313242313242313,34.9868769225432
1743380247151,20:17:27.151,70,-1,1467.39926739927,0.2999222999223,34.9868769225432
1743380247170,20:17:27.170,70,-1,1446.15384615385,0.295482295482295,34.9868769225432
1743380247190,20:17:27.190,70,-1,1433.69963369963,0.3003663003663,34.9868769225432
1743380247209,20:17:27.209,70,-1,1430.76923076923,0.313242313242313,34.9868769225432
1743380247229,20:17:27.229,70,-1,1424.17582417582,0.315906315906316,34.9868769225432
1743380247248,20:17:27.248,70,-1,1421.24542124542,0.311466311466311,34.9868769225432
1743380247268,20:17:27.268,70,-1,1410.25641025641,0.298590298590299,34.9868769225432
1743380247287,20:17:27.287,70,-1,1395.6043956044,0.295482295482295,34.9868769225432
1743380247307,20:17:27.307,70,-1,1381.68498168498,0.300810300810301,34.9868769225432
1743380247326,20:17:27.326,70,-1,1361.17216117216,0.313686313686314,34.9868769225432
1743380247346,20:17:27.346,70,-1,1361.17216117216,0.313686313686314,34.9868769225432
1743380247365,20:17:27.365,70,-1,1340.65934065934,0.31013431013431,34.9868769225432
1743380247385,20:17:27.385,70,-1,1324.54212454212,0.296814296814297,34.9868769225432
1743380247404,20:17:27.404,70,-1,1315.01831501831,0.295038295038295,34.9868769225432
1743380247424,20:17:27.424,70,-1,1315.01831501831,0.302142302142302,34.9868769225432
1743380247443,20:17:27.443,70,-1,1308.42490842491,0.313686313686314,34.9868769225432
1743380247463,20:17:27.463,70,-1,1301.8315018315,0.314574314574315,34.9868769225432
1743380247482,20:17:27.482,70,-1,1299.6336996337,0.307914307914308,34.9968799565686
1743380247502,20:17:27.502,70,-1,1301.8315018315,0.295482295482295,34.9968799565686
1743380247521,20:17:27.521,70,-1,1289.37728937729,0.295038295038295,34.9968799565686
1743380247541,20:17:27.541,70,-1,1295.9706959707,0.303030303030303,34.9968799565686
1743380247560,20:17:27.560,70,-1,1301.0989010989,0.314130314130314,34.9968799565686
1743380247580,20:17:27.580,70,-1,1295.9706959707,0.313686313686314,34.9968799565686
1743380247599,20:17:27.599,70,-1,1282.05128205128,0.306138306138306,34.9968799565686
1743380247619,20:17:27.619,70,-1,1282.05128205128,0.294594294594295,34.9968799565686
1743380247638,20:17:27.638,70,-1,1288.64468864469,0.295038295038295,34.9968799565686
1743380247658,20:17:27.658,70,-1,1293.04029304029,0.304362304362304,34.9968799565686
1743380247677,20:17:27.677,70,-1,1293.77289377289,0.314130314130314,34.9968799565686
1743380247697,20:17:27.697,70,-1,1294.50549450549,0.313242313242313,34.9968799565686
1743380247716,20:17:27.716,70,-1,1274.72527472527,0.303918303918304,34.9968799565686
1743380247736,20:17:27.736,70,-1,1256.41025641026,0.293706293706294,34.9968799565686
1743380247755,20:17:27.755,70,-1,1261.53846153846,0.295038295038295,34.9968799565686
1743380247775,20:17:27.775,70,-1,1306.95970695971,0.305694305694306,34.9968799565686
1743380247794,20:17:27.794,70,-1,1363.36996336996,0.313242313242313,34.9968799565686
1743380247814,20:17:27.814,70,-1,1415.38461538462,0.311910311910312,34.9968799565686
1743380247833,20:17:27.833,70,-1,1448.35164835165,0.301698301698302,34.9968799565686
1743380247853,20:17:27.853,70,-1,1465.20146520146,0.292818292818293,34.9968799565686
1743380247872,20:17:27.872,70,-1,1466.66666666667,0.295038295038295,34.9968799565686
1743380247892,20:17:27.892,70,-1,1477.65567765568,0.306582306582307,34.9968799565686
1743380247911,20:17:27.911,70,-1,1476.19047619048,0.313242313242313,34.9968799565686
1743380247931,20:17:27.931,70,-1,1476.19047619048,0.310578310578311,34.9968799565686
1743380247950,20:17:27.950,70,-1,1493.77289377289,0.299478299478299,34.9968799565686
1743380247970,20:17:27.970,70,-1,1504.0293040293,0.291930291930292,34.9968799565686
1743380247989,20:17:27.989,70,-1,1510.62271062271,0.295482295482295,34.9968799565686
1743380248009,20:17:28.009,70,-1,1509.15750915751,0.307914307914308,34.9968799565686
1743380248028,20:17:28.028,70,-1,1505.49450549451,0.312798312798313,34.9968799565686
1743380248048,20:17:28.048,70,-1,1487.91208791209,0.31013431013431,34.9968799565686
1743380248067,20:17:28.067,70,-1,1458.60805860806,0.297702297702298,34.9968799565686
1743380248087,20:17:28.087,70,-1,1434.43223443223,0.291930291930292,34.9968799565686
1743380248106,20:17:28.106,70,-1,1425.64102564103,0.295926295926296,34.9968799565686
1743380248126,20:17:28.126,70,-1,1427.10622710623,0.308802308802309,34.9968799565686
1743380248145,20:17:28.145,70,-1,1430.76923076923,0.312354312354312,34.9968799565686
1743380248165,20:17:28.165,70,-1,1432.23443223443,0.309246309246309,34.9968799565686
1743380248184,20:17:28.184,70,-1,1429.30402930403,0.296370296370296,34.9968799565686
1743380248204,20:17:28.204,70,-1,1416.84981684982,0.291930291930292,34.9968799565686
1743380248223,20:17:28.223,70,-1,1391.94139194139,0.296814296814297,34.9968799565686
1743380248243,20:17:28.243,70,-1,1377.28937728938,0.30969030969031,34.9968799565686
1743380248262,20:17:28.262,70,-1,1379.48717948718,0.311910311910312,34.9968799565686
1743380248282,20:17:28.282,70,-1,1399.2673992674,0.307470307470307,34.9968799565686
1743380248301,20:17:28.301,70,-1,1409.52380952381,0.294594294594295,34.9968799565686
1743380248321,20:17:28.321,70,-1,1400.7326007326,0.291486291486291,34.9968799565686
1743380248340,20:17:28.340,70,-1,1386.08058608059,0.297702297702298,34.9968799565686
1743380248360,20:17:28.360,70,-1,1367.76556776557,0.31013431013431,34.9968799565686
1743380248379,20:17:28.379,67,-1,1348.71794871795,0.311466311466311,34.9968799565686
1743380248399,20:17:28.399,67,-1,1334.06593406593,0.306582306582307,34.9968799565686
1743380248418,20:17:28.418,67,-1,1326.73992673993,0.293262293262293,34.9968799565686
1743380248438,20:17:28.438,67,-1,1317.21611721612,0.291930291930292,34.9968799565686
1743380248457,20:17:28.457,67,-1,1315.01831501831,0.299478299478299,34.9968799565686
1743380248477,20:17:28.477,67,-1,1306.95970695971,0.310578310578311,35.006882967311
1743380248496,20:17:28.496,67,-1,1309.15750915751,0.311466311466311,35.006882967311
1743380248516,20:17:28.516,67,-1,1306.95970695971,0.304806304806305,35.006882967311
1743380248535,20:17:28.535,67,-1,1298.1684981685,0.292818292818293,35.006882967311
1743380248555,20:17:28.555,67,-1,1289.37728937729,0.291930291930292,35.006882967311
1743380248574,20:17:28.574,67,-1,1291.57509157509,0.3003663003663,35.006882967311
1743380248594,20:17:28.594,67,-1,1341.39194139194,0.31013431013431,35.006882967311
1743380248613,20:17:28.613,67,-1,1405.86080586081,0.30969030969031,35.006882967311
1743380248633,20:17:28.633,67,-1,1461.53846153846,0.301698301698302,35.006882967311
1743380248652,20:17:28.652,67,-1,1527.47252747253,0.291042291042291,35.006882967311
1743380248672,20:17:28.672,67,-1,1566.30036630037,0.291930291930292,35.006882967311
1743380248691,20:17:28.691,67,-1,1586.08058608059,0.301254301254301,35.006882967311
1743380248711,20:17:28.711,67,-1,1595.6043956044,0.31013431013431,35.006882967311
1743380248730,20:17:28.730,67,-1,1592.67399267399,0.309246309246309,35.006882967311
1743380248750,20:17:28.750,67,-1,1605.86080586081,0.3003663003663,35.006882967311
1743380248769,20:17:28.769,67,-1,1623.44322344322,0.291042291042291,35.006882967311
1743380248789,20:17:28.789,67,-1,1627.10622710623,0.292818292818293,35.006882967311
1743380248808,20:17:28.808,67,-1,1624.17582417582,0.303474303474303,35.006882967311
1743380248828,20:17:28.828,67,-1,1600,0.310578310578311,35.006882967311
1743380248847,20:17:28.847,67,-1,1578.75457875458,0.309246309246309,35.006882967311
1743380248867,20:17:28.867,67,-1,1567.03296703297,0.299034299034299,35.006882967311
1743380248886,20:17:28.886,67,-1,1570.69597069597,0.291486291486291,35.006882967311
1743380248906,20:17:28.906,67,-1,1557.50915750916,0.294150294150294,35.006882967311
1743380248925,20:17:28.925,67,-1,1531.86813186813,0.306138306138306,35.006882967311
1743380248945,20:17:28.945,67,-1,1501.8315018315,0.311910311910312,35.006882967311
1743380248964,20:17:28.964,67,-1,1476.92307692308,0.30969030969031,35.006882967311
1743380248984,20:17:28.984,67,-1,1459.34065934066,0.298590298590299,35.006882967311
1743380249003,20:17:29.003,67,-1,1454.94505494505,0.291486291486291,35.006882967311
1743380249023,20:17:29.023,67,-1,1465.93406593407,0.295482295482295,35.006882967311
1743380249042,20:17:29.042,67,-1,1456.41025641026,0.307914307914308,35.006882967311
1743380249062,20:17:29.062,67,-1,1454.21245421245,0.312354312354312,35.006882967311
1743380249081,20:17:29.081,67,-1,1442.49084249084,0.30969030969031,35.006882967311
1743380249101,20:17:29.101,67,-1,1424.90842490842,0.297258297258297,35.006882967311
1743380249120,20:17:29.120,67,-1,1392.67399267399,0.291486291486291,35.006882967311
1743380249140,20:17:29.140,67,-1,1354.57875457875,0.295926295926296,35.006882967311
1743380249159,20:17:29.159,67,-1,1343.58974358974,0.308802308802309,35.006882967311
1743380249179,20:17:29.179,67,-1,1356.04395604396,0.312354312354312,35.006882967311
1743380249198,20:17:29.198,67,-1,1364.83516483516,0.309246309246309,35.006882967311
1743380249218,20:17:29.218,67,-1,1356.04395604396,0.296370296370296,35.006882967311
1743380249237,20:17:29.237,67,-1,1347.25274725275,0.292818292818293,35.006882967311
1743380249257,20:17:29.257,67,-1,1354.57875457875,0.298146298146298,35.006882967311
1743380249276,20:17:29.276,67,-1,1352.38095238095,0.311022311022311,35.006882967311
1743380249296,20:17:29.296,68,-1,1345.78754578755,0.313686313686314,35.006882967311
1743380249315,20:17:29.315,68,-1,1332.60073260073,0.309246309246309,35.006882967311
1743380249335,20:17:29.335,68,-1,1320.14652014652,0.296370296370296,35.006882967311
1743380249354,20:17:29.354,68,-1,1320.14652014652,0.296370296370296,35.006882967311
1743380249374,20:17:29.374,68,-1,1329.67032967033,0.299478299478299,35.006882967311
1743380249393,20:17:29.393,68,-1,1362.63736263736,0.311910311910312,35.006882967311
1743380249413,20:17:29.413,68,-1,1433.69963369963,0.313242313242313,35.006882967311
1743380249432,20:17:29.432,68,-1,1514.28571428571,0.307470307470307,35.006882967311
1743380249452,20:17:29.452,68,-1,1581.68498168498,0.295038295038295,35.006882967311
1743380249471,20:17:29.471,68,-1,1634.43223443223,0.293262293262293,34.9968799565686
1743380249491,20:17:29.491,68,-1,1672.52747252747,0.300810300810301,34.9968799565686
1743380249510,20:17:29.510,68,-1,1687.91208791209,0.311910311910312,34.9968799565686
1743380249530,20:17:29.530,68,-1,1690.84249084249,0.311910311910312,34.9968799565686
1743380249549,20:17:29.549,68,-1,1694.50549450549,0.305250305250305,34.9968799565686
1743380249569,20:17:29.569,68,-1,1710.62271062271,0.293262293262293,34.9968799565686
1743380249588,20:17:29.588,68,-1,1715.75091575092,0.293262293262293,34.9968799565686
1743380249608,20:17:29.608,68,-1,1722.34432234432,0.302586302586303,34.9968799565686
1743380249627,20:17:29.627,68,-1,1713.55311355311,0.312798312798313,34.9968799565686
1743380249647,20:17:29.647,68,-1,1675.45787545788,0.312354312354312,34.9968799565686
1743380249666,20:17:29.666,68,-1,1635.16483516484,0.304806304806305,34.9968799565686
1743380249686,20:17:29.686,68,-1,1618.31501831502,0.295926295926296,34.9968799565686
1743380249705,20:17:29.705,68,-1,1610.25641025641,0.2999222999223,34.9968799565686
1743380249725,20:17:29.725,68,-1,1610.98901098901,0.312354312354312,34.9968799565686
1743380249744,20:17:29.744,68,-1,1604.3956043956,0.322566322566323,34.9968799565686
1743380249764,20:17:29.764,68,-1,1579.48717948718,0.321234321234321,34.9968799565686
1743380249783,20:17:29.783,68,-1,1551.64835164835,0.310578310578311,34.9968799565686
1743380249803,20:17:29.803,68,-1,1524.54212454212,0.2999222999223,34.9968799565686
1743380249822,20:17:29.822,68,-1,1504.7619047619,0.3003663003663,34.9968799565686
1743380249842,20:17:29.842,68,-1,1485.71428571429,0.30969030969031,34.9968799565686
1743380249861,20:17:29.861,68,-1,1451.28205128205,0.316350316350316,34.9968799565686
1743380249881,20:17:29.881,68,-1,1419.04761904762,0.314130314130314,34.9968799565686
1743380249900,20:17:29.900,68,-1,1394.87179487179,0.303030303030303,34.9968799565686
1743380249920,20:17:29.920,68,-1,1381.68498168498,0.295038295038295,34.9968799565686
1743380249939,20:17:29.939,68,-1,1384.61538461538,0.297258297258297,34.9968799565686
1743380249959,20:17:29.959,68,-1,1382.41758241758,0.308358308358308,34.9968799565686
1743380249978,20:17:29.978,68,-1,1383.88278388278,0.313242313242313,34.9968799565686
1743380249998,20:17:29.998,68,-1,1378.02197802198,0.31013431013431,34.9968799565686
1743380250017,20:17:30.017,68,-1,1370.69597069597,0.297702297702298,34.9968799565686
1743380250037,20:17:30.037,68,-1,1350.91575091575,0.291042291042291,34.9968799565686
1743380250056,20:17:30.056,68,-1,1334.79853479853,0.294594294594295,34.9968799565686
1743380250076,20:17:30.076,68,-1,1328.20512820513,0.306582306582307,34.9968799565686
1743380250095,20:17:30.095,68,-1,1331.86813186813,0.310578310578311,34.9968799565686
1743380250115,20:17:30.115,68,-1,1327.47252747253,0.307914307914308,34.9968799565686
1743380250134,20:17:30.134,68,-1,1323.80952380952,0.295038295038295,34.9968799565686
1743380250154,20:17:30.154,68,-1,1333.33333333333,0.29015429015429,34.9968799565686
1743380250173,20:17:30.173,65,-1,1348.71794871795,0.294594294594295,34.9968799565686
1743380250193,20:17:30.193,65,-1,1367.76556776557,0.307470307470307,34.9968799565686
1743380250212,20:17:30.212,65,-1,1416.84981684982,0.31013431013431,34.9968799565686
1743380250232,20:17:30.232,65,-1,1490.10989010989,0.306138306138306,34.9968799565686
1743380250251,20:17:30.251,65,-1,1556.77655677656,0.293262293262293,34.9968799565686
1743380250271,20:17:30.271,65,-1,1604.3956043956,0.29015429015429,34.9968799565686
1743380250290,20:17:30.290,65,-1,1658.60805860806,0.295482295482295,34.9968799565686
1743380250310,20:17:30.310,65,-1,1703.2967032967,0.307470307470307,34.9968799565686
1743380250329,20:17:30.329,65,-1,1728.93772893773,0.309246309246309,34.9968799565686
1743380250349,20:17:30.349,65,-1,1739.19413919414,0.304806304806305,34.9968799565686
1743380250368,20:17:30.368,65,-1,1731.13553113553,0.292374292374292,34.9968799565686
1743380250388,20:17:30.388,65,-1,1714.28571428571,0.29015429015429,34.9968799565686
1743380250407,20:17:30.407,65,-1,1706.95970695971,0.296370296370296,34.9968799565686
1743380250427,20:17:30.427,65,-1,1695.9706959707,0.307470307470307,34.9968799565686
1743380250446,20:17:30.446,65,-1,1675.45787545788,0.308358308358308,34.9968799565686
1743380250466,20:17:30.466,65,-1,1661.53846153846,0.301698301698302,35.0018814648502
1743380250485,20:17:30.485,65,-1,1625.64102564103,0.288378288378288,35.0018814648502
1743380250505,20:17:30.505,65,-1,1586.81318681319,0.287046287046287,35.0018814648502
1743380250524,20:17:30.524,65,-1,1559.70695970696,0.294150294150294,35.0018814648502
1743380250544,20:17:30.544,65,-1,1529.67032967033,0.304806304806305,35.0018814648502
1743380250563,20:17:30.563,65,-1,1522.34432234432,0.304806304806305,35.0018814648502
1743380250583,20:17:30.583,65,-1,1526.00732600733,0.297702297702298,35.0018814648502
1743380250602,20:17:30.602,65,-1,1513.55311355311,0.286158286158286,35.0018814648502
1743380250622,20:17:30.622,65,-1,1499.6336996337,0.286158286158286,35.0018814648502
1743380250641,20:17:30.641,65,-1,1484.24908424908,0.295482295482295,35.0018814648502
1743380250661,20:17:30.661,65,-1,1466.66666666667,0.305250305250305,35.0018814648502
1743380250680,20:17:30.680,65,-1,1441.75824175824,0.304806304806305,35.0018814648502
1743380250700,20:17:30.700,65,-1,1417.58241758242,0.296814296814297,35.0018814648502
1743380250719,20:17:30.719,65,-1,1391.20879120879,0.286158286158286,35.0018814648502
1743380250739,20:17:30.739,65,-1,1369.23076923077,0.287490287490287,35.0018814648502
1743380250758,20:17:30.758,65,-1,1349.45054945055,0.297702297702298,35.0018814648502
1743380250778,20:17:30.778,65,-1,1353.84615384615,0.305694305694306,35.0018814648502
1743380250797,20:17:30.797,65,-1,1355.31135531136,0.304806304806305,35.0018814648502
1743380250817,20:17:30.817,65,-1,1353.11355311355,0.294594294594295,35.0018814648502
1743380250836,20:17:30.836,65,-1,1347.25274725275,0.285714285714286,35.0018814648502
1743380250856,20:17:30.856,65,-1,1332.60073260073,0.287490287490287,35.0018814648502
1743380250875,20:17:30.875,65,-1,1317.94871794872,0.298590298590299,35.0018814648502
1743380250895,20:17:30.895,65,-1,1312.82051282051,0.305694305694306,35.0018814648502
1743380250914,20:17:30.914,65,-1,1310.62271062271,0.304362304362304,35.0018814648502
1743380250934,20:17:30.934,65,-1,1293.77289377289,0.293262293262293,35.0018814648502
1743380250953,20:17:30.953,65,-1,1282.05128205128,0.285270285270285,35.0018814648502
1743380250973,20:17:30.973,65,-1,1276.92307692308,0.287934287934288,35.0018814648502
1743380250992,20:17:30.992,68,-1,1282.05128205128,0.2999222999223,35.0018814648502
1743380251012,20:17:31.012,68,-1,1298.1684981685,0.305250305250305,35.0018814648502
1743380251031,20:17:31.031,68,-1,1349.45054945055,0.303030303030303,35.0018814648502
1743380251051,20:17:31.051,68,-1,1425.64102564103,0.291042291042291,35.0018814648502
1743380251070,20:17:31.070,68,-1,1490.10989010989,0.284382284382284,35.0018814648502
1743380251090,20:17:31.090,68,-1,1551.64835164835,0.287934287934288,35.0018814648502
1743380251109,20:17:31.109,68,-1,1589.74358974359,0.3003663003663,35.0018814648502
1743380251129,20:17:31.129,68,-1,1605.86080586081,0.304806304806305,35.0018814648502
1743380251148,20:17:31.148,68,-1,1626.37362637363,0.301698301698302,35.0018814648502
1743380251168,20:17:31.168,68,-1,1652.01465201465,0.288822288822289,35.0018814648502
1743380251187,20:17:31.187,68,-1,1660.80586080586,0.283938283938284,35.0018814648502
1743380251207,20:17:31.207,68,-1,1672.52747252747,0.288378288378288,35.0018814648502
1743380251226,20:17:31.226,68,-1,1673.99267399267,0.301254301254301,35.0018814648502
1743380251246,20:17:31.246,68,-1,1657.14285714286,0.304362304362304,35.0018814648502
1743380251265,20:17:31.265,68,-1,1626.37362637363,0.300810300810301,35.0018814648502
1743380251285,20:17:31.285,68,-1,1578.75457875458,0.287490287490287,35.0018814648502
1743380251304,20:17:31.304,68,-1,1530.40293040293,0.283494283494283,35.0018814648502
1743380251324,20:17:31.324,68,-1,1501.8315018315,0.289266289266289,35.0018814648502
1743380251343,20:17:31.343,68,-1,1501.8315018315,0.289266289266289,35.0018814648502
1743380251363,20:17:31.363,68,-1,1491.57509157509,0.303918303918304,35.0018814648502
1743380251382,20:17:31.382,68,-1,1480.58608058608,0.299034299034299,35.0018814648502
1743380251402,20:17:31.402,68,-1,1468.13186813187,0.285714285714286,35.0018814648502
1743380251421,20:17:31.421,68,-1,1448.35164835165,0.283494283494283,35.0018814648502
1743380251441,20:17:31.441,68,-1,1415.38461538462,0.29015429015429,35.0018814648502
1743380251460,20:17:31.460,68,-1,1378.02197802198,0.302142302142302,35.006882967311
1743380251480,20:17:31.480,68,-1,1346.52014652015,0.303030303030303,35.006882967311
1743380251499,20:17:31.499,68,-1,1334.79853479853,0.297702297702298,35.006882967311
1743380251519,20:17:31.519,68,-1,1319.41391941392,0.284826284826285,35.006882967311
1743380251538,20:17:31.538,68,-1,1298.9010989011,0.283938283938284,35.006882967311
1743380251558,20:17:31.558,68,-1,1292.30769230769,0.291930291930292,35.006882967311
1743380251577,20:17:31.577,68,-1,1298.9010989011,0.302586302586303,35.006882967311
1743380251597,20:17:31.597,68,-1,1307.69230769231,0.303030303030303,35.006882967311
1743380251616,20:17:31.616,68,-1,1293.77289377289,0.295482295482295,35.006882967311
1743380251636,20:17:31.636,68,-1,1279.12087912088,0.283494283494283,35.006882967311
1743380251655,20:17:31.655,68,-1,1274.72527472527,0.283494283494283,35.006882967311
1743380251675,20:17:31.675,68,-1,1270.32967032967,0.292374292374292,35.006882967311
1743380251694,20:17:31.694,68,-1,1263.00366300366,0.302142302142302,35.006882967311
1743380251714,20:17:31.714,68,-1,1260.07326007326,0.301254301254301,35.006882967311
1743380251733,20:17:31.733,68,-1,1255.67765567766,0.293262293262293,35.006882967311
1743380251753,20:17:31.753,68,-1,1249.81684981685,0.282606282606283,35.006882967311
1743380251772,20:17:31.772,68,-1,1251.28205128205,0.283494283494283,35.006882967311
1743380251792,20:17:31.792,68,-1,1244.68864468864,0.293262293262293,35.006882967311
1743380251811,20:17:31.811,68,-1,1234.43223443223,0.302142302142302,35.006882967311
1743380251831,20:17:31.831,68,-1,1236.63003663004,0.300810300810301,35.006882967311
1743380251850,20:17:31.850,68,-1,1263.73626373626,0.290598290598291,35.006882967311
1743380251870,20:17:31.870,73,-1,1297.4358974359,0.281274281274281,35.006882967311
1743380251889,20:17:31.889,73,-1,1348.71794871795,0.283494283494283,35.006882967311
1743380251909,20:17:31.909,73,-1,1421.24542124542,0.294150294150294,35.006882967311
1743380251928,20:17:31.928,73,-1,1487.17948717949,0.301698301698302,35.006882967311
1743380251948,20:17:31.948,73,-1,1523.80952380952,0.2999222999223,35.006882967311
1743380251967,20:17:31.967,73,-1,1536.99633699634,0.288822288822289,35.006882967311
1743380251987,20:17:31.987,73,-1,1540.65934065934,0.281274281274281,35.006882967311
1743380252006,20:17:32.006,73,-1,1549.45054945055,0.283938283938284,35.006882967311
1743380252026,20:17:32.026,73,-1,1560.43956043956,0.295926295926296,35.006882967311
1743380252045,20:17:32.045,73,-1,1557.50915750916,0.301698301698302,35.006882967311
1743380252065,20:17:32.065,73,-1,1536.99633699634,0.299478299478299,35.006882967311
1743380252084,20:17:32.084,73,-1,1519.41391941392,0.287046287046287,35.006882967311
1743380252104,20:17:32.104,73,-1,1494.50549450549,0.280830280830281,35.006882967311
1743380252123,20:17:32.123,73,-1,1473.99267399267,0.284382284382284,35.006882967311
1743380252143,20:17:32.143,73,-1,1452.74725274725,0.296814296814297,35.006882967311
1743380252162,20:17:32.162,73,-1,1432.96703296703,0.301254301254301,35.006882967311
1743380252182,20:17:32.182,73,-1,1406.59340659341,0.298146298146298,35.006882967311
1743380252201,20:17:32.201,73,-1,1384.61538461538,0.285270285270285,35.006882967311
1743380252221,20:17:32.221,73,-1,1361.17216117216,0.28038628038628,35.006882967311
1743380252240,20:17:32.240,73,-1,1355.31135531136,0.284826284826285,35.006882967311
1743380252260,20:17:32.260,73,-1,1350.18315018315,0.298146298146298,35.006882967311
1743380252279,20:17:32.279,73,-1,1346.52014652015,0.300810300810301,35.006882967311
1743380252299,20:17:32.299,73,-1,1343.58974358974,0.296814296814297,35.006882967311
1743380252318,20:17:32.318,73,-1,1356.77655677656,0.283494283494283,35.006882967311
1743380252338,20:17:32.338,73,-1,1350.18315018315,0.27994227994228,35.006882967311
1743380252357,20:17:32.357,73,-1,1323.07692307692,0.285714285714286,35.006882967311
1743380252377,20:17:32.377,73,-1,1295.2380952381,0.298146298146298,35.006882967311
1743380252396,20:17:32.396,73,-1,1281.31868131868,0.2999222999223,35.006882967311
1743380252416,20:17:32.416,73,-1,1278.38827838828,0.295038295038295,35.006882967311
1743380252435,20:17:32.435,73,-1,1265.20146520147,0.282162282162282,35.006882967311
1743380252455,20:17:32.455,73,-1,1254.21245421245,0.27994227994228,35.011884463951
1743380252474,20:17:32.474,73,-1,1248.35164835165,0.286158286158286,35.011884463951
1743380252494,20:17:32.494,73,-1,1245.42124542125,0.298146298146298,35.011884463951
1743380252513,20:17:32.513,73,-1,1249.08424908425,0.299034299034299,35.011884463951
1743380252533,20:17:32.533,73,-1,1247.61904761905,0.292818292818293,35.011884463951
1743380252552,20:17:32.552,73,-1,1237.36263736264,0.28038628038628,35.011884463951
1743380252572,20:17:32.572,73,-1,1235.89743589744,0.27994227994228,35.011884463951
1743380252591,20:17:32.591,73,-1,1234.43223443223,0.287934287934288,35.011884463951
1743380252611,20:17:32.611,73,-1,1228.57142857143,0.299034299034299,35.011884463951
1743380252630,20:17:32.630,73,-1,1231.50183150183,0.299478299478299,35.011884463951
1743380252650,20:17:32.650,73,-1,1254.21245421245,0.291930291930292,35.011884463951
1743380252669,20:17:32.669,68,-1,1291.57509157509,0.27994227994228,35.011884463951
1743380252689,20:17:32.689,68,-1,1347.25274725275,0.28038628038628,35.011884463951
1743380252708,20:17:32.708,68,-1,1408.79120879121,0.288822288822289,35.011884463951
1743380252728,20:17:32.728,68,-1,1450.54945054945,0.298590298590299,35.011884463951
1743380252747,20:17:32.747,68,-1,1471.79487179487,0.297702297702298,35.011884463951
1743380252767,20:17:32.767,68,-1,1491.57509157509,0.288822288822289,35.011884463951
1743380252786,20:17:32.786,68,-1,1489.37728937729,0.278166278166278,35.011884463951
1743380252806,20:17:32.806,68,-1,1462.27106227106,0.279054279054279,35.011884463951
1743380252825,20:17:32.825,68,-1,1454.21245421245,0.28971028971029,35.011884463951
1743380252845,20:17:32.845,68,-1,1453.47985347985,0.298146298146298,35.011884463951
1743380252864,20:17:32.864,68,-1,1440.29304029304,0.296814296814297,35.011884463951
1743380252884,20:17:32.884,68,-1,1430.76923076923,0.287046287046287,35.011884463951
1743380252903,20:17:32.903,68,-1,1410.25641025641,0.278166278166278,35.011884463951
1743380252923,20:17:32.923,68,-1,1381.68498168498,0.28038628038628,35.011884463951
1743380252942,20:17:32.942,68,-1,1355.31135531136,0.291486291486291,35.011884463951
1743380252962,20:17:32.962,68,-1,1353.84615384615,0.298590298590299,35.011884463951
1743380252981,20:17:32.981,68,-1,1360.43956043956,0.296370296370296,35.011884463951
1743380253001,20:17:33.001,68,-1,1358.24175824176,0.285270285270285,35.011884463951
1743380253020,20:17:33.020,68,-1,1349.45054945055,0.277722277722278,35.011884463951
1743380253040,20:17:33.040,68,-1,1325.27472527473,0.28038628038628,35.011884463951
1743380253059,20:17:33.059,68,-1,1327.47252747253,0.292374292374292,35.011884463951
1743380253079,20:17:33.079,68,-1,1343.58974358974,0.297702297702298,35.011884463951
1743380253098,20:17:33.098,68,-1,1347.98534798535,0.295482295482295,35.011884463951
1743380253118,20:17:33.118,68,-1,1338.46153846154,0.283050283050283,35.011884463951
1743380253137,20:17:33.137,68,-1,1319.41391941392,0.276834276834277,35.011884463951
1743380253157,20:17:33.157,68,-1,1290.10989010989,0.280830280830281,35.011884463951
1743380253176,20:17:33.176,68,-1,1263.73626373626,0.293262293262293,35.011884463951
1743380253196,20:17:33.196,68,-1,1238.09523809524,0.297258297258297,35.011884463951
1743380253215,20:17:33.215,68,-1,1215.38461538462,0.294594294594295,35.011884463951
1743380253235,20:17:33.235,68,-1,1202.9304029304,0.281274281274281,35.011884463951
1743380253254,20:17:33.254,68,-1,1211.72161172161,0.276834276834277,35.011884463951
1743380253274,20:17:33.274,68,-1,1238.82783882784,0.281274281274281,35.011884463951
1743380253293,20:17:33.293,68,-1,1260.80586080586,0.294150294150294,35.011884463951
1743380253313,20:17:33.313,68,-1,1257.87545787546,0.296814296814297,35.011884463951
1743380253332,20:17:33.332,68,-1,1260.07326007326,0.293262293262293,35.011884463951
1743380253352,20:17:33.352,68,-1,1260.07326007326,0.293262293262293,35.011884463951
1743380253371,20:17:33.371,68,-1,1232.96703296703,0.276390276390276,35.011884463951
1743380253391,20:17:33.391,68,-1,1227.83882783883,0.282162282162282,35.011884463951
1743380253410,20:17:33.410,68,-1,1221.97802197802,0.294594294594295,35.011884463951
1743380253430,20:17:33.430,68,-1,1213.91941391941,0.296370296370296,35.011884463951
1743380253449,20:17:33.449,68,-1,1221.97802197802,0.291486291486291,35.011884463951
1743380253469,20:17:33.469,75,-1,1229.30402930403,0.278166278166278,35.011884463951
1743380253488,20:17:33.488,75,-1,1255.67765567766,0.275946275946276,35.011884463951
1743380253508,20:17:33.508,75,-1,1290.10989010989,0.283050283050283,35.011884463951
1743380253527,20:17:33.527,75,-1,1330.40293040293,0.294594294594295,35.011884463951
1743380253547,20:17:33.547,75,-1,1360.43956043956,0.295482295482295,35.011884463951
1743380253566,20:17:33.566,75,-1,1366.30036630037,0.289266289266289,35.011884463951
1743380253586,20:17:33.586,75,-1,1367.03296703297,0.276834276834277,35.011884463951
1743380253605,20:17:33.605,75,-1,1369.23076923077,0.275946275946276,35.011884463951
1743380253625,20:17:33.625,75,-1,1374.35897435897,0.283938283938284,35.011884463951
1743380253644,20:17:33.644,75,-1,1386.08058608059,0.295038295038295,35.011884463951
1743380253664,20:17:33.664,75,-1,1400.7326007326,0.295038295038295,35.011884463951
1743380253683,20:17:33.683,75,-1,1405.12820512821,0.287490287490287,35.011884463951
1743380253703,20:17:33.703,75,-1,1389.01098901099,0.275946275946276,35.011884463951
1743380253722,20:17:33.722,75,-1,1374.35897435897,0.276390276390276,35.011884463951
1743380253742,20:17:33.742,75,-1,1356.77655677656,0.285714285714286,35.011884463951
1743380253761,20:17:33.761,75,-1,1339.92673992674,0.294594294594295,35.011884463951
1743380253781,20:17:33.781,75,-1,1333.33333333333,0.294150294150294,35.011884463951
1743380253800,20:17:33.800,75,-1,1337.72893772894,0.285714285714286,35.011884463951
1743380253820,20:17:33.820,75,-1,1342.12454212454,0.275058275058275,35.011884463951
1743380253839,20:17:33.839,75,-1,1336.26373626374,0.276390276390276,35.011884463951
1743380253859,20:17:33.859,75,-1,1331.13553113553,0.286602286602287,35.011884463951
1743380253878,20:17:33.878,75,-1,1332.60073260073,0.295038295038295,35.011884463951
1743380253898,20:17:33.898,75,-1,1343.58974358974,0.293262293262293,35.011884463951
1743380253917,20:17:33.917,75,-1,1342.12454212454,0.283050283050283,35.011884463951
1743380253937,20:17:33.937,75,-1,1328.93772893773,0.274170274170274,35.011884463951
1743380253956,20:17:33.956,75,-1,1315.01831501831,0.276390276390276,35.011884463951
1743380253976,20:17:33.976,75,-1,1306.22710622711,0.287934287934288,35.011884463951
1743380253995,20:17:33.995,75,-1,1306.22710622711,0.294594294594295,35.011884463951
1743380254015,20:17:34.015,75,-1,1307.69230769231,0.292374292374292,35.011884463951
1743380254034,20:17:34.034,75,-1,1300.3663003663,0.281274281274281,35.011884463951
1743380254054,20:17:34.054,75,-1,1291.57509157509,0.273726273726274,35.011884463951
1743380254073,20:17:34.073,75,-1,1282.78388278388,0.276834276834277,35.011884463951
1743380254093,20:17:34.093,75,-1,1271.79487179487,0.288822288822289,35.011884463951
1743380254112,20:17:34.112,75,-1,1264.46886446886,0.294150294150294,35.011884463951
1743380254132,20:17:34.132,75,-1,1257.87545787546,0.291930291930292,35.011884463951
1743380254151,20:17:34.151,75,-1,1248.35164835165,0.279498279498279,35.011884463951
1743380254171,20:17:34.171,75,-1,1232.96703296703,0.273282273282273,35.011884463951
1743380254190,20:17:34.190,75,-1,1240.29304029304,0.277278277278277,35.011884463951
1743380254210,20:17:34.210,75,-1,1275.45787545788,0.28971028971029,35.011884463951
1743380254229,20:17:34.229,75,-1,1321.61172161172,0.293706293706294,35.011884463951
1743380254249,20:17:34.249,75,-1,1358.24175824176,0.290598290598291,35.011884463951
1743380254268,20:17:34.268,75,-1,1389.01098901099,0.277722277722278,35.011884463951
1743380254288,20:17:34.288,75,-1,1410.98901098901,0.272838272838273,35.011884463951
1743380254307,20:17:34.307,75,-1,1431.50183150183,0.277722277722278,35.011884463951
1743380254327,20:17:34.327,75,-1,1437.36263736264,0.290598290598291,35.011884463951
1743380254346,20:17:34.346,75,-1,1442.49084249084,0.293262293262293,35.011884463951
1743380254366,20:17:34.366,75,-1,1440.29304029304,0.289266289266289,35.011884463951
1743380254385,20:17:34.385,75,-1,1442.49084249084,0.276390276390276,35.011884463951
