RawTimestamp,LocalTime,HR_Direct,HR_Buffered,PPG,GSR,Temperature
1743439846451,12:50:46.451,-1,-1,0,2.6981684981685,26.4608428180218
1743439846471,12:50:46.471,-1,-1,0,2.6981684981685,26.4608428180218
1743439846490,12:50:46.490,-1,-1,0,0.455597470522842,26.4608428180218
1743439846510,12:50:46.510,-1,-1,0,0.455597470522842,26.4608428180218
1743439846529,12:50:46.529,-1,-1,0,0.455597470522842,26.4608428180218
1743439846549,12:50:46.549,-1,-1,0,0.455597470522842,26.4608428180218
1743439846568,12:50:46.568,-1,-1,0,0.455597470522842,26.4608428180218
1743439846588,12:50:46.588,-1,-1,0,0.446707763780934,26.4608428180218
1743439846607,12:50:46.607,-1,-1,0,0.446707763780934,26.4608428180218
1743439846627,12:50:46.627,-1,-1,0,0.446707763780934,26.4608428180218
1743439846646,12:50:46.646,-1,-1,0,0.446707763780934,26.4608428180218
1743439846666,12:50:46.666,-1,-1,0,0.446707763780934,26.4608428180218
1743439846685,12:50:46.685,-1,-1,0,0.449084249084249,26.4608428180218
1743439846705,12:50:46.705,-1,-1,1.46520146520147,0.449084249084249,26.4608428180218
1743439846724,12:50:46.724,-1,-1,0,0.449084249084249,26.4608428180218
1743439846744,12:50:46.744,-1,-1,0,0.449084249084249,26.4608428180218
1743439846763,12:50:46.763,-1,-1,0,0.449084249084249,26.4608428180218
1743439846783,12:50:46.783,-1,-1,0,0.447774447774448,26.4608428180218
1743439846802,12:50:46.802,-1,-1,0,0.447330447330447,26.4608428180218
1743439846822,12:50:46.822,-1,-1,0,0.445554445554445,26.4608428180218
1743439846841,12:50:46.841,-1,-1,0,0.445110445110445,26.4608428180218
1743439846861,12:50:46.861,-1,-1,0,0.445554445554445,26.4608428180218
1743439846880,12:50:46.880,-1,-1,0,0.447330447330447,26.4608428180218
1743439846900,12:50:46.900,-1,-1,0,0.447774447774448,26.4608428180218
1743439846919,12:50:46.919,-1,-1,0,0.446886446886447,26.4608428180218
1743439846939,12:50:46.939,-1,-1,0,0.445554445554445,26.4608428180218
1743439846958,12:50:46.958,-1,-1,0,0.444666444666445,26.4608428180218
1743439846978,12:50:46.978,-1,-1,0,0.445554445554445,26.4608428180218
1743439846997,12:50:46.997,-1,-1,0,0.447330447330447,26.4608428180218
1743439847017,12:50:47.017,-1,-1,0,0.447330447330447,26.4608428180218
1743439847036,12:50:47.036,-1,-1,0,0.446442446442446,26.4608428180218
1743439847056,12:50:47.056,-1,-1,0,0.444666444666445,26.4608428180218
1743439847075,12:50:47.075,-1,-1,0,0.444666444666445,26.4608428180218
1743439847095,12:50:47.095,-1,-1,0,0.445554445554445,26.4608428180218
1743439847114,12:50:47.114,-1,-1,0,0.446886446886447,26.4608428180218
1743439847134,12:50:47.134,-1,-1,0,0.446886446886447,26.4608428180218
1743439847153,12:50:47.153,-1,-1,0,0.445998445998446,26.4608428180218
1743439847173,12:50:47.173,-1,-1,0,0.444666444666445,26.4608428180218
1743439847192,12:50:47.192,-1,-1,0,0.444222444222444,26.4608428180218
1743439847212,12:50:47.212,-1,-1,0,0.445554445554445,26.4608428180218
1743439847231,12:50:47.231,-1,-1,0,0.446886446886447,26.4608428180218
1743439847251,12:50:47.251,-1,-1,0,0.446886446886447,26.4608428180218
1743439847270,12:50:47.270,-1,-1,0,0.445554445554445,26.4608428180218
1743439847290,12:50:47.290,-1,-1,0,0.444222444222444,26.4608428180218
1743439847309,12:50:47.309,-1,-1,0,0.444222444222444,26.4608428180218
1743439847329,12:50:47.329,-1,-1,0,0.445554445554445,26.4608428180218
1743439847348,12:50:47.348,-1,-1,0,0.446442446442446,26.4608428180218
1743439847368,12:50:47.368,-1,-1,0,0.446442446442446,33.3160436254693
1743439847387,12:50:47.387,-1,-1,0,0.445110445110445,33.3160436254693
1743439847407,12:50:47.407,-1,-1,0,0.443778443778444,33.3160436254693
1743439847426,12:50:47.426,-1,-1,0,0.443778443778444,33.3160436254693
1743439847446,12:50:47.446,-1,-1,0,0.445554445554445,33.3160436254693
1743439847465,12:50:47.465,-1,-1,0,0.446442446442446,33.3160436254693
1743439847485,12:50:47.485,-1,-1,0,0.445998445998446,33.3160436254693
1743439847504,12:50:47.504,-1,-1,0,0.444666444666445,33.3160436254693
1743439847524,12:50:47.524,-1,-1,0,0.443778443778444,33.3160436254693
1743439847543,12:50:47.543,-1,-1,0,0.443778443778444,33.3160436254693
1743439847563,12:50:47.563,-1,-1,0,0.445554445554445,33.3160436254693
1743439847582,12:50:47.582,-1,-1,0,0.445998445998446,33.3160436254693
1743439847602,12:50:47.602,-1,-1,0,0.445554445554445,33.3160436254693
1743439847621,12:50:47.621,-1,-1,0,0.443778443778444,33.3160436254693
1743439847641,12:50:47.641,-1,-1,0,0.443334443334443,33.3160436254693
1743439847660,12:50:47.660,-1,-1,0,0.443778443778444,33.3160436254693
1743439847680,12:50:47.680,-1,-1,0,0.445554445554445,33.3160436254693
1743439847699,12:50:47.699,-1,-1,0,0.445998445998446,33.3160436254693
1743439847719,12:50:47.719,-1,-1,0,0.445110445110445,33.3160436254693
1743439847738,12:50:47.738,-1,-1,0,0.443778443778444,33.3160436254693
1743439847758,12:50:47.758,-1,-1,0,0.442890442890443,33.3160436254693
1743439847777,12:50:47.777,-1,-1,0,0.443334443334443,33.3160436254693
1743439847797,12:50:47.797,-1,-1,0,0.445554445554445,33.3160436254693
1743439847816,12:50:47.816,-1,-1,19.047619047619,0.445554445554445,33.3160436254693
1743439847836,12:50:47.836,-1,-1,408.058608058608,0.445110445110445,33.3160436254693
1743439847855,12:50:47.855,-1,-1,815.384615384615,0.443334443334443,33.3160436254693
1743439847875,12:50:47.875,-1,-1,1108.42490842491,0.442890442890443,33.3160436254693
1743439847894,12:50:47.894,-1,-1,1282.05128205128,0.443778443778444,33.3160436254693
1743439847914,12:50:47.914,-1,-1,1357.50915750916,0.445554445554445,33.3160436254693
1743439847933,12:50:47.933,-1,-1,1372.89377289377,0.445554445554445,33.3160436254693
1743439847953,12:50:47.953,-1,-1,1356.04395604396,0.444666444666445,33.3160436254693
1743439847972,12:50:47.972,-1,-1,1327.47252747253,0.442890442890443,33.3160436254693
1743439847992,12:50:47.992,-1,-1,1281.31868131868,0.442890442890443,33.3160436254693
1743439848011,12:50:48.011,-1,-1,1248.35164835165,0.443778443778444,33.3160436254693
1743439848031,12:50:48.031,-1,-1,1226.37362637363,0.445110445110445,33.3160436254693
1743439848050,12:50:48.050,-1,-1,1198.5347985348,0.445110445110445,33.3160436254693
1743439848070,12:50:48.070,-1,-1,1175.09157509158,0.444222444222444,33.3160436254693
1743439848089,12:50:48.089,-1,-1,1156.77655677656,0.442446442446442,33.3160436254693
1743439848109,12:50:48.109,-1,-1,1142.85714285714,0.442446442446442,33.3160436254693
1743439848128,12:50:48.128,-1,-1,1127.47252747253,0.443334443334443,33.3160436254693
1743439848148,12:50:48.148,-1,-1,1116.48351648352,0.444666444666445,33.3160436254693
1743439848167,12:50:48.167,-1,-1,1117.21611721612,0.444666444666445,33.3160436254693
1743439848187,12:50:48.187,-1,-1,1112.08791208791,0.443778443778444,33.3160436254693
1743439848206,12:50:48.206,-1,-1,1104.0293040293,0.442446442446442,33.3160436254693
1743439848226,12:50:48.226,-1,-1,1089.37728937729,0.442446442446442,33.3160436254693
1743439848245,12:50:48.245,-1,-1,1073.99267399267,0.443778443778444,33.3160436254693
1743439848265,12:50:48.265,-1,-1,1057.14285714286,0.445110445110445,33.3160436254693
1743439848284,12:50:48.284,-1,-1,1054.21245421245,0.444666444666445,33.3160436254693
1743439848304,12:50:48.304,-1,-1,1054.21245421245,0.442890442890443,33.3160436254693
1743439848323,12:50:48.323,-1,-1,1063.73626373626,0.442002442002442,33.3160436254693
1743439848343,12:50:48.343,-1,-1,1056.41025641026,0.442446442446442,33.3160436254693
1743439848362,12:50:48.362,-1,-1,1054.94505494505,0.443778443778444,33.3210470895283
1743439848382,12:50:48.382,-1,-1,1052.74725274725,0.444666444666445,33.3210470895283
1743439848401,12:50:48.401,-1,-1,1051.28205128205,0.444222444222444,33.3210470895283
1743439848421,12:50:48.421,-1,-1,1051.28205128205,0.442446442446442,33.3210470895283
1743439848440,12:50:48.440,-1,-1,1055.67765567766,0.441558441558441,33.3210470895283
1743439848460,12:50:48.460,-1,-1,1061.53846153846,0.442002442002442,33.3210470895283
1743439848479,12:50:48.479,-1,-1,1076.19047619048,0.443778443778444,33.3210470895283
1743439848499,12:50:48.499,-1,-1,1107.69230769231,0.444222444222444,33.3210470895283
1743439848518,12:50:48.518,-1,-1,1171.42857142857,0.443778443778444,33.3210470895283
1743439848538,12:50:48.538,-1,-1,1270.32967032967,0.442002442002442,33.3210470895283
1743439848557,12:50:48.557,-1,-1,1375.09157509157,0.441114441114441,33.3210470895283
1743439848577,12:50:48.577,-1,-1,1477.65567765568,0.442002442002442,33.3210470895283
1743439848596,12:50:48.596,-1,-1,1550.18315018315,0.443334443334443,33.3210470895283
1743439848616,12:50:48.616,-1,-1,1600,0.444222444222444,33.3210470895283
1743439848635,12:50:48.635,-1,-1,1639.56043956044,0.443334443334443,33.3210470895283
1743439848655,12:50:48.655,-1,-1,1668.86446886447,0.441558441558441,33.3210470895283
1743439848674,12:50:48.674,-1,-1,1685.71428571429,0.441114441114441,33.3210470895283
1743439848694,12:50:48.694,-1,-1,1695.2380952381,0.442002442002442,33.3210470895283
1743439848713,12:50:48.713,-1,-1,1675.45787545788,0.443334443334443,33.3210470895283
1743439848733,12:50:48.733,-1,-1,1639.56043956044,0.443778443778444,33.3210470895283
1743439848752,12:50:48.752,-1,-1,1593.40659340659,0.442890442890443,33.3210470895283
1743439848772,12:50:48.772,-1,-1,1544.32234432234,0.441114441114441,33.3210470895283
1743439848791,12:50:48.791,-1,-1,1512.08791208791,0.440670440670441,33.3210470895283
1743439848811,12:50:48.811,-1,-1,1484.24908424908,0.441558441558441,33.3210470895283
1743439848830,12:50:48.830,-1,-1,1444.68864468864,0.443334443334443,33.3210470895283
1743439848850,12:50:48.850,-1,-1,1426.37362637363,0.443334443334443,33.3210470895283
1743439848869,12:50:48.869,-1,-1,1422.71062271062,0.442446442446442,33.3210470895283
1743439848889,12:50:48.889,-1,-1,1412.45421245421,0.441114441114441,33.3210470895283
1743439848908,12:50:48.908,-1,-1,1391.94139194139,0.441114441114441,33.3210470895283
1743439848928,12:50:48.928,-1,-1,1370.69597069597,0.442002442002442,33.3210470895283
1743439848947,12:50:48.947,-1,-1,1345.05494505494,0.443334443334443,33.3210470895283
1743439848967,12:50:48.967,-1,-1,1317.94871794872,0.443334443334443,33.3210470895283
1743439848986,12:50:48.986,-1,-1,1291.57509157509,0.442446442446442,33.3210470895283
1743439849006,12:50:49.006,-1,-1,1271.79487179487,0.441114441114441,33.3210470895283
1743439849025,12:50:49.025,-1,-1,1249.81684981685,0.441114441114441,33.3210470895283
1743439849045,12:50:49.045,-1,-1,1238.09523809524,0.442446442446442,33.3210470895283
1743439849064,12:50:49.064,-1,-1,1221.97802197802,0.443778443778444,33.3210470895283
1743439849084,12:50:49.084,-1,-1,1191.94139194139,0.443778443778444,33.3210470895283
1743439849103,12:50:49.103,-1,-1,1165.56776556777,0.442446442446442,33.3210470895283
1743439849123,12:50:49.123,-1,-1,1155.31135531136,0.441114441114441,33.3210470895283
1743439849142,12:50:49.142,-1,-1,1142.12454212454,0.441114441114441,33.3210470895283
1743439849162,12:50:49.162,-1,-1,1143.58974358974,0.442890442890443,33.3210470895283
1743439849181,12:50:49.181,-1,-1,1156.77655677656,0.444222444222444,33.3210470895283
1743439849201,12:50:49.201,-1,-1,1164.83516483516,0.443778443778444,33.3210470895283
1743439849220,12:50:49.220,-1,-1,1148.71794871795,0.442002442002442,33.3210470895283
1743439849240,12:50:49.240,-1,-1,1150.18315018315,0.441114441114441,33.3210470895283
1743439849259,12:50:49.259,-1,-1,1131.13553113553,0.441558441558441,33.3210470895283
1743439849279,12:50:49.279,-1,-1,1117.94871794872,0.443334443334443,33.3210470895283
1743439849298,12:50:49.298,-1,-1,1123.80952380952,0.444222444222444,33.3210470895283
1743439849318,12:50:49.318,-1,-1,1124.54212454212,0.443778443778444,33.3210470895283
1743439849337,12:50:49.337,-1,-1,1123.07692307692,0.442002442002442,33.3210470895283
1743439849357,12:50:49.357,-1,-1,1115.75091575092,0.441558441558441,33.3460643225117
1743439849376,12:50:49.376,-1,-1,1109.89010989011,0.442002442002442,33.3460643225117
1743439849396,12:50:49.396,-1,-1,1110.62271062271,0.443778443778444,33.3460643225117
1743439849415,12:50:49.415,-1,-1,1105.49450549451,0.444666444666445,33.3460643225117
1743439849435,12:50:49.435,-1,-1,1114.28571428571,0.444222444222444,33.3460643225117
1743439849454,12:50:49.454,-1,-1,1140.65934065934,0.442446442446442,33.3460643225117
1743439849474,12:50:49.474,-1,-1,1200.7326007326,0.442002442002442,33.3460643225117
1743439849493,12:50:49.493,-1,-1,1277.65567765568,0.442446442446442,33.3460643225117
1743439849513,12:50:49.513,-1,-1,1350.91575091575,0.444222444222444,33.3460643225117
1743439849532,12:50:49.532,-1,-1,1433.69963369963,0.444666444666445,33.3460643225117
1743439849552,12:50:49.552,-1,-1,1510.62271062271,0.444222444222444,33.3460643225117
1743439849571,12:50:49.571,-1,-1,1559.70695970696,0.442446442446442,33.3460643225117
1743439849591,12:50:49.591,-1,-1,1580.95238095238,0.442446442446442,33.3460643225117
1743439849610,12:50:49.610,-1,-1,1591.20879120879,0.442890442890443,33.3460643225117
1743439849630,12:50:49.630,-1,-1,1602.1978021978,0.444666444666445,33.3460643225117
1743439849649,12:50:49.649,-1,-1,1609.52380952381,0.445110445110445,33.3460643225117
1743439849669,12:50:49.669,-1,-1,1583.88278388278,0.444222444222444,33.3460643225117
1743439849688,12:50:49.688,-1,-1,1545.78754578755,0.442890442890443,33.3460643225117
1743439849708,12:50:49.708,-1,-1,1509.15750915751,0.442446442446442,33.3460643225117
1743439849727,12:50:49.727,-1,-1,1475.45787545788,0.443778443778444,33.3460643225117
1743439849747,12:50:49.747,-1,-1,1441.75824175824,0.445110445110445,33.3460643225117
1743439849766,12:50:49.766,-1,-1,1415.38461538462,0.445110445110445,33.3460643225117
1743439849786,12:50:49.786,-1,-1,1400,0.444222444222444,33.3460643225117
1743439849805,12:50:49.805,-1,-1,1383.88278388278,0.442890442890443,33.3460643225117
1743439849825,12:50:49.825,-1,-1,1374.35897435897,0.442890442890443,33.3460643225117
1743439849844,12:50:49.844,-1,-1,1369.23076923077,0.444222444222444,33.3460643225117
1743439849864,12:50:49.864,-1,-1,1355.31135531136,0.445554445554445,33.3460643225117
1743439849883,12:50:49.883,-1,-1,1343.58974358974,0.445554445554445,33.3460643225117
1743439849903,12:50:49.903,-1,-1,1332.60073260073,0.444222444222444,33.3460643225117
1743439849922,12:50:49.922,-1,-1,1315.75091575092,0.442890442890443,33.3460643225117
1743439849942,12:50:49.942,-1,-1,1301.8315018315,0.442890442890443,33.3460643225117
1743439849961,12:50:49.961,-1,-1,1276.92307692308,0.444222444222444,33.3460643225117
1743439849981,12:50:49.981,-1,-1,1250.54945054945,0.445554445554445,33.3460643225117
1743439850000,12:50:50.000,-1,-1,1224.17582417582,0.445554445554445,33.3460643225117
1743439850020,12:50:50.020,-1,-1,1210.25641025641,0.444222444222444,33.3460643225117
1743439850039,12:50:50.039,-1,-1,1208.05860805861,0.442890442890443,33.3460643225117
1743439850059,12:50:50.059,-1,-1,1203.663003663,0.443334443334443,33.3460643225117
1743439850078,12:50:50.078,-1,-1,1198.5347985348,0.445110445110445,33.3460643225117
1743439850098,12:50:50.098,-1,-1,1192.67399267399,0.446442446442446,33.3460643225117
1743439850117,12:50:50.117,-1,-1,1181.68498168498,0.445998445998446,33.3460643225117
1743439850137,12:50:50.137,-1,-1,1169.96336996337,0.444222444222444,33.3460643225117
1743439850156,12:50:50.156,-1,-1,1165.56776556777,0.443334443334443,33.3460643225117
1743439850176,12:50:50.176,-1,-1,1167.76556776557,0.444222444222444,33.3460643225117
1743439850195,12:50:50.195,-1,-1,1168.49816849817,0.445554445554445,33.3460643225117
1743439850215,12:50:50.215,-1,-1,1167.76556776557,0.446442446442446,33.3460643225117
1743439850234,12:50:50.234,-1,-1,1162.63736263736,0.445998445998446,33.3460643225117
1743439850254,12:50:50.254,-1,-1,1141.39194139194,0.444222444222444,33.3460643225117
1743439850273,12:50:50.273,-1,-1,1131.13553113553,0.443778443778444,33.3460643225117
1743439850293,12:50:50.293,-1,-1,1145.05494505494,0.444222444222444,33.3460643225117
1743439850312,12:50:50.312,-1,-1,1186.81318681319,0.445998445998446,33.3460643225117
1743439850332,12:50:50.332,-1,-1,1241.02564102564,0.446442446442446,33.3460643225117
1743439850351,12:50:50.351,-1,-1,1318.68131868132,0.445554445554445,33.3460643225117
1743439850371,12:50:50.371,-1,-1,1402.9304029304,0.444222444222444,33.3460643225117
1743439850390,12:50:50.390,-1,-1,1478.38827838828,0.443778443778444,33.3460643225117
1743439850410,12:50:50.410,-1,-1,1542.85714285714,0.444222444222444,33.3460643225117
1743439850429,12:50:50.429,-1,-1,1577.28937728938,0.445998445998446,33.3460643225117
1743439850449,12:50:50.449,-1,-1,1591.20879120879,0.446442446442446,33.3460643225117
1743439850468,12:50:50.468,-1,-1,1581.68498168498,0.445554445554445,33.3460643225117
1743439850488,12:50:50.488,-1,-1,1573.62637362637,0.443778443778444,33.3460643225117
1743439850507,12:50:50.507,-1,-1,1566.30036630037,0.443778443778444,33.3460643225117
1743439850527,12:50:50.527,-1,-1,1555.31135531136,0.444222444222444,33.3460643225117
1743439850546,12:50:50.546,-1,-1,1541.39194139194,0.445998445998446,33.3460643225117
1743439850566,12:50:50.566,-1,-1,1515.75091575092,0.446442446442446,33.3460643225117
1743439850585,12:50:50.585,-1,-1,1476.19047619048,0.445554445554445,33.3460643225117
1743439850605,12:50:50.605,-1,-1,1443.22344322344,0.443778443778444,33.3460643225117
1743439850624,12:50:50.624,-1,-1,1430.03663003663,0.443778443778444,33.3460643225117
1743439850644,12:50:50.644,-1,-1,1421.97802197802,0.444666444666445,33.3460643225117
1743439850663,12:50:50.663,-1,-1,1400,0.446442446442446,33.3460643225117
1743439850683,12:50:50.683,-1,-1,1391.94139194139,0.446442446442446,33.3460643225117
1743439850702,12:50:50.702,-1,-1,1391.20879120879,0.445554445554445,33.3460643225117
1743439850722,12:50:50.722,-1,-1,1375.82417582418,0.444222444222444,33.3460643225117
1743439850741,12:50:50.741,-1,-1,1352.38095238095,0.444222444222444,33.3460643225117
1743439850761,12:50:50.761,-1,-1,1335.53113553114,0.445554445554445,33.3460643225117
1743439850780,12:50:50.780,-1,-1,1326.00732600733,0.446886446886447,33.3460643225117
1743439850800,12:50:50.800,-1,-1,1303.2967032967,0.446442446442446,33.3460643225117
1743439850819,12:50:50.819,-1,-1,1274.72527472527,0.445110445110445,33.3460643225117
1743439850839,12:50:50.839,-1,-1,1248.35164835165,0.443778443778444,33.3460643225117
1743439850858,12:50:50.858,-1,-1,1235.89743589744,0.444222444222444,33.3460643225117
1743439850878,12:50:50.878,-1,-1,1219.04761904762,0.445554445554445,33.3460643225117
1743439850897,12:50:50.897,-1,-1,1208.05860805861,0.446886446886447,33.3460643225117
1743439850917,12:50:50.917,-1,-1,1195.6043956044,0.446442446442446,33.3460643225117
1743439850936,12:50:50.936,-1,-1,1186.08058608059,0.444666444666445,33.3460643225117
1743439850956,12:50:50.956,-1,-1,1169.23076923077,0.443778443778444,33.3460643225117
1743439850975,12:50:50.975,-1,-1,1163.36996336996,0.444222444222444,33.3460643225117
1743439850995,12:50:50.995,-1,-1,1157.50915750916,0.445998445998446,33.3460643225117
1743439851014,12:50:51.014,-1,-1,1153.84615384615,0.446442446442446,33.3460643225117
1743439851034,12:50:51.034,-1,-1,1163.36996336996,0.445998445998446,33.3460643225117
1743439851053,12:50:51.053,-1,-1,1175.09157509158,0.444666444666445,33.3460643225117
1743439851073,12:50:51.073,-1,-1,1169.23076923077,0.443778443778444,33.3460643225117
1743439851092,12:50:51.092,-1,-1,1161.90476190476,0.443778443778444,33.3460643225117
1743439851112,12:50:51.112,-1,-1,1151.64835164835,0.445554445554445,33.3460643225117
1743439851131,12:50:51.131,-1,-1,1147.98534798535,0.446442446442446,33.3460643225117
1743439851151,12:50:51.151,-1,-1,1137.72893772894,0.445998445998446,33.3460643225117
1743439851170,12:50:51.170,-1,-1,1135.53113553114,0.444222444222444,33.3460643225117
1743439851190,12:50:51.190,-1,-1,1150.91575091575,0.443334443334443,33.3460643225117
1743439851209,12:50:51.209,-1,-1,1208.05860805861,0.444222444222444,33.3460643225117
1743439851229,12:50:51.229,-1,-1,1292.30769230769,0.445554445554445,33.3460643225117
1743439851248,12:50:51.248,-1,-1,1381.68498168498,0.445998445998446,33.3460643225117
1743439851268,12:50:51.268,-1,-1,1465.20146520146,0.445554445554445,33.3460643225117
1743439851287,12:50:51.287,-1,-1,1546.52014652015,0.443778443778444,33.3460643225117
1743439851307,12:50:51.307,-1,-1,1592.67399267399,0.443334443334443,33.3460643225117
1743439851326,12:50:51.326,-1,-1,1613.91941391941,0.443778443778444,33.3460643225117
1743439851346,12:50:51.346,-1,-1,1613.18681318681,0.445554445554445,33.3460643225117
1743439851365,12:50:51.365,-1,-1,1617.58241758242,0.445998445998446,33.3460643225117
1743439851385,12:50:51.385,-1,-1,1617.58241758242,0.445110445110445,33.3460643225117
1743439851404,12:50:51.404,-1,-1,1610.25641025641,0.443334443334443,33.3460643225117
1743439851424,12:50:51.424,-1,-1,1600.7326007326,0.443334443334443,33.3460643225117
1743439851443,12:50:51.443,-1,-1,1577.28937728938,0.444222444222444,33.3460643225117
1743439851463,12:50:51.463,-1,-1,1540.65934065934,0.445554445554445,33.3460643225117
1743439851482,12:50:51.482,-1,-1,1504.7619047619,0.445554445554445,33.3460643225117
1743439851502,12:50:51.502,-1,-1,1471.79487179487,0.444666444666445,33.3460643225117
1743439851521,12:50:51.521,-1,-1,1441.75824175824,0.443334443334443,33.3460643225117
1743439851541,12:50:51.541,-1,-1,1427.83882783883,0.442890442890443,33.3460643225117
1743439851560,12:50:51.560,-1,-1,1417.58241758242,0.444222444222444,33.3460643225117
1743439851580,12:50:51.580,-1,-1,1388.27838827839,0.445554445554445,33.3460643225117
1743439851599,12:50:51.599,-1,-1,1377.28937728938,0.445554445554445,33.3460643225117
1743439851619,12:50:51.619,-1,-1,1366.30036630037,0.444222444222444,33.3460643225117
1743439851638,12:50:51.638,-1,-1,1355.31135531136,0.442446442446442,33.3460643225117
1743439851658,12:50:51.658,-1,-1,1347.98534798535,0.442890442890443,33.3460643225117
1743439851677,12:50:51.677,-1,-1,1330.40293040293,0.444222444222444,33.3460643225117
1743439851697,12:50:51.697,-1,-1,1305.49450549451,0.445554445554445,33.3460643225117
1743439851716,12:50:51.716,-1,-1,1284.24908424908,0.445110445110445,33.3460643225117
1743439851736,12:50:51.736,-1,-1,1260.07326007326,0.443778443778444,33.3460643225117
1743439851755,12:50:51.755,-1,-1,1245.42124542125,0.442446442446442,33.3460643225117
1743439851775,12:50:51.775,-1,-1,1219.78021978022,0.442890442890443,33.3460643225117
1743439851794,12:50:51.794,-1,-1,1215.38461538462,0.444222444222444,33.3460643225117
1743439851814,12:50:51.814,-1,-1,1221.97802197802,0.445110445110445,33.3460643225117
1743439851833,12:50:51.833,-1,-1,1207.32600732601,0.445110445110445,33.3460643225117
1743439851853,12:50:51.853,-1,-1,1198.5347985348,0.443778443778444,33.3460643225117
1743439851872,12:50:51.872,-1,-1,1190.47619047619,0.442446442446442,33.3460643225117
1743439851892,12:50:51.892,-1,-1,1183.15018315018,0.442890442890443,33.3460643225117
1743439851911,12:50:51.911,-1,-1,1185.34798534799,0.444222444222444,33.3460643225117
1743439851931,12:50:51.931,-1,-1,1194.13919413919,0.445554445554445,33.3460643225117
1743439851950,12:50:51.950,-1,-1,1190.47619047619,0.445110445110445,33.3460643225117
1743439851970,12:50:51.970,-1,-1,1191.94139194139,0.442890442890443,33.3460643225117
1743439851989,12:50:51.989,-1,-1,1194.13919413919,0.442446442446442,33.3460643225117
1743439852009,12:50:52.009,-1,-1,1186.08058608059,0.442890442890443,33.3460643225117
1743439852028,12:50:52.028,-1,-1,1171.42857142857,0.444222444222444,33.3460643225117
1743439852048,12:50:52.048,-1,-1,1156.77655677656,0.445110445110445,33.3460643225117
1743439852067,12:50:52.067,-1,-1,1150.18315018315,0.444222444222444,33.3460643225117
1743439852087,12:50:52.087,-1,-1,1164.10256410256,0.442446442446442,33.3460643225117
1743439852106,12:50:52.106,-1,-1,1197.0695970696,0.442002442002442,33.3460643225117
1743439852126,12:50:52.126,-1,-1,1253.47985347985,0.442890442890443,33.3460643225117
1743439852145,12:50:52.145,-1,-1,1324.54212454212,0.443778443778444,33.3460643225117
1743439852165,12:50:52.165,-1,-1,1414.65201465201,0.444666444666445,33.3460643225117
1743439852184,12:50:52.184,-1,-1,1491.57509157509,0.443778443778444,33.3460643225117
1743439852204,12:50:52.204,-1,-1,1560.43956043956,0.442002442002442,33.3460643225117
1743439852223,12:50:52.223,-1,-1,1609.52380952381,0.441558441558441,33.3460643225117
1743439852243,12:50:52.243,-1,-1,1630.03663003663,0.442446442446442,33.3460643225117
1743439852262,12:50:52.262,-1,-1,1638.09523809524,0.444222444222444,33.3460643225117
1743439852282,12:50:52.282,-1,-1,1637.36263736264,0.444222444222444,33.3460643225117
1743439852301,12:50:52.301,-1,-1,1633.69963369963,0.443334443334443,33.3460643225117
1743439852321,12:50:52.321,-1,-1,1621.24542124542,0.441558441558441,33.3460643225117
1743439852340,12:50:52.340,-1,-1,1596.336996337,0.441558441558441,33.3560711749597
1743439852360,12:50:52.360,-1,-1,1575.82417582418,0.442446442446442,33.3560711749597
1743439852379,12:50:52.379,-1,-1,1550.91575091575,0.444222444222444,33.3560711749597
1743439852399,12:50:52.399,-1,-1,1526.73992673993,0.444222444222444,33.3560711749597
1743439852418,12:50:52.418,-1,-1,1504.7619047619,0.442890442890443,33.3560711749597
1743439852438,12:50:52.438,-1,-1,1479.85347985348,0.441558441558441,33.3560711749597
1743439852457,12:50:52.457,-1,-1,1446.15384615385,0.441558441558441,33.3560711749597
1743439852477,12:50:52.477,-1,-1,1427.83882783883,0.442446442446442,33.3560711749597
1743439852496,12:50:52.496,-1,-1,1423.44322344322,0.443778443778444,33.3560711749597
1743439852516,12:50:52.516,-1,-1,1408.05860805861,0.443778443778444,33.3560711749597
1743439852535,12:50:52.535,-1,-1,1391.94139194139,0.442446442446442,33.3560711749597
1743439852555,12:50:52.555,-1,-1,1362.63736263736,0.441114441114441,33.3560711749597
1743439852574,12:50:52.574,-1,-1,1345.05494505494,0.441114441114441,33.3560711749597
1743439852594,12:50:52.594,-1,-1,1339.19413919414,0.442446442446442,33.3560711749597
1743439852613,12:50:52.613,-1,-1,1329.67032967033,0.443778443778444,33.3560711749597
1743439852633,12:50:52.633,-1,-1,1322.34432234432,0.443334443334443,33.3560711749597
1743439852652,12:50:52.652,-1,-1,1305.49450549451,0.442002442002442,33.3560711749597
1743439852672,12:50:52.672,-1,-1,1285.71428571429,0.440670440670441,33.3560711749597
1743439852691,12:50:52.691,-1,-1,1266.66666666667,0.441114441114441,33.3560711749597
1743439852711,12:50:52.711,-1,-1,1251.28205128205,0.442446442446442,33.3560711749597
1743439852730,12:50:52.730,-1,-1,1245.42124542125,0.443334443334443,33.3560711749597
1743439852750,12:50:52.750,-1,-1,1238.09523809524,0.442890442890443,33.3560711749597
1743439852769,12:50:52.769,-1,-1,1225.64102564103,0.441558441558441,33.3560711749597
1743439852789,12:50:52.789,-1,-1,1208.05860805861,0.44022644022644,33.3560711749597
1743439852808,12:50:52.808,-1,-1,1213.91941391941,0.440670440670441,33.3560711749597
1743439852828,12:50:52.828,-1,-1,1218.31501831502,0.442446442446442,33.3560711749597
1743439852847,12:50:52.847,-1,-1,1217.58241758242,0.442890442890443,33.3560711749597
1743439852867,12:50:52.867,-1,-1,1210.25641025641,0.442890442890443,33.3560711749597
1743439852886,12:50:52.886,-1,-1,1197.8021978022,0.440670440670441,33.3560711749597
1743439852906,12:50:52.906,-1,-1,1186.08058608059,0.44022644022644,33.3560711749597
1743439852925,12:50:52.925,-1,-1,1188.27838827839,0.440670440670441,33.3560711749597
1743439852945,12:50:52.945,-1,-1,1185.34798534799,0.442446442446442,33.3560711749597
1743439852964,12:50:52.964,-1,-1,1180.21978021978,0.442446442446442,33.3560711749597
1743439852984,12:50:52.984,-1,-1,1175.82417582418,0.442002442002442,33.3560711749597
1743439853003,12:50:53.003,-1,-1,1183.88278388278,0.44022644022644,33.3560711749597
1743439853023,12:50:53.023,-1,-1,1218.31501831502,0.43978243978244,33.3560711749597
1743439853042,12:50:53.042,-1,-1,1275.45787545788,0.44022644022644,33.3560711749597
1743439853062,12:50:53.062,-1,-1,1347.25274725275,0.442002442002442,33.3560711749597
1743439853081,12:50:53.081,-1,-1,1420.51282051282,0.442002442002442,33.3560711749597
1743439853101,12:50:53.101,-1,-1,1490.84249084249,0.441558441558441,33.3560711749597
1743439853120,12:50:53.120,-1,-1,1545.05494505494,0.43978243978244,33.3560711749597
1743439853140,12:50:53.140,-1,-1,1585.34798534799,0.43978243978244,33.3560711749597
1743439853159,12:50:53.159,-1,-1,1622.71062271062,0.44022644022644,33.3560711749597
1743439853179,12:50:53.179,-1,-1,1652.01465201465,0.442002442002442,33.3560711749597
1743439853198,12:50:53.198,-1,-1,1661.53846153846,0.442002442002442,33.3560711749597
1743439853218,12:50:53.218,-1,-1,1672.52747252747,0.441114441114441,33.3560711749597
1743439853237,12:50:53.237,-1,-1,1678.38827838828,0.439338439338439,33.3560711749597
1743439853257,12:50:53.257,-1,-1,1676.92307692308,0.439338439338439,33.3560711749597
1743439853276,12:50:53.276,-1,-1,1668.13186813187,0.44022644022644,33.3560711749597
1743439853296,12:50:53.296,-1,-1,1642.49084249084,0.442002442002442,33.3560711749597
1743439853315,12:50:53.315,-1,-1,1600,0.442002442002442,33.3560711749597
1743439853335,12:50:53.335,-1,-1,1551.64835164835,0.440670440670441,33.3610745924525
1743439853354,12:50:53.354,-1,-1,1498.1684981685,0.439338439338439,33.3610745924525
1743439853374,12:50:53.374,-1,-1,1453.47985347985,0.439338439338439,33.3610745924525
1743439853393,12:50:53.393,-1,-1,1449.81684981685,0.44022644022644,33.3610745924525
1743439853413,12:50:53.413,-1,-1,1462.27106227106,0.441558441558441,33.3610745924525
1743439853432,12:50:53.432,-1,-1,1460.80586080586,0.441558441558441,33.3610745924525
1743439853452,12:50:53.452,-1,-1,1457.14285714286,0.44022644022644,33.3610745924525
1743439853471,12:50:53.471,-1,-1,1441.02564102564,0.438894438894439,33.3610745924525
1743439853491,12:50:53.491,-1,-1,1424.17582417582,0.438894438894439,33.3610745924525
1743439853510,12:50:53.510,-1,-1,1408.05860805861,0.44022644022644,33.3610745924525
1743439853530,12:50:53.530,-1,-1,1381.68498168498,0.441558441558441,33.3610745924525
1743439853549,12:50:53.549,-1,-1,1358.24175824176,0.441114441114441,33.3610745924525
1743439853569,12:50:53.569,-1,-1,1342.12454212454,0.43978243978244,33.3610745924525
1743439853588,12:50:53.588,-1,-1,1319.41391941392,0.438450438450438,33.3610745924525
1743439853608,12:50:53.608,-1,-1,1290.84249084249,0.438894438894439,33.3610745924525
1743439853627,12:50:53.627,-1,-1,1268.86446886447,0.44022644022644,33.3610745924525
1743439853647,12:50:53.647,-1,-1,1264.46886446886,0.441114441114441,33.3610745924525
1743439853666,12:50:53.666,-1,-1,1264.46886446886,0.440670440670441,33.3610745924525
1743439853686,12:50:53.686,-1,-1,1253.47985347985,0.439338439338439,33.3610745924525
1743439853705,12:50:53.705,-1,-1,1246.88644688645,0.438450438450438,33.3610745924525
1743439853725,12:50:53.725,-1,-1,1232.23443223443,0.438450438450438,33.3610745924525
1743439853744,12:50:53.744,-1,-1,1230.76923076923,0.44022644022644,33.3610745924525
1743439853764,12:50:53.764,-1,-1,1237.36263736264,0.441114441114441,33.3610745924525
1743439853783,12:50:53.783,-1,-1,1231.50183150183,0.440670440670441,33.3610745924525
1743439853803,12:50:53.803,-1,-1,1230.76923076923,0.438894438894439,33.3610745924525
1743439853822,12:50:53.822,-1,-1,1229.30402930403,0.438006438006438,33.3610745924525
1743439853842,12:50:53.842,-1,-1,1234.43223443223,0.438450438450438,33.3610745924525
1743439853861,12:50:53.861,-1,-1,1231.50183150183,0.44022644022644,33.3610745924525
1743439853881,12:50:53.881,-1,-1,1216.84981684982,0.440670440670441,33.3610745924525
1743439853900,12:50:53.900,-1,-1,1205.86080586081,0.44022644022644,33.3610745924525
1743439853920,12:50:53.920,-1,-1,1183.15018315018,0.438450438450438,33.3610745924525
1743439853939,12:50:53.939,-1,-1,1169.96336996337,0.437562437562438,33.3610745924525
1743439853959,12:50:53.959,-1,-1,1189.01098901099,0.438450438450438,33.3610745924525
1743439853978,12:50:53.978,-1,-1,1250.54945054945,0.44022644022644,33.3610745924525
1743439853998,12:50:53.998,-1,-1,1330.40293040293,0.440670440670441,33.3610745924525
1743439854017,12:50:54.017,-1,-1,1413.91941391941,0.43978243978244,33.3610745924525
1743439854037,12:50:54.037,-1,-1,1497.4358974359,0.438006438006438,33.3610745924525
1743439854056,12:50:54.056,-1,-1,1583.88278388278,0.437562437562438,33.3610745924525
1743439854076,12:50:54.076,-1,-1,1652.74725274725,0.438450438450438,33.3610745924525
1743439854095,12:50:54.095,-1,-1,1684.98168498168,0.44022644022644,33.3610745924525
1743439854115,12:50:54.115,-1,-1,1705.49450549451,0.44022644022644,33.3610745924525
1743439854134,12:50:54.134,-1,-1,1717.94871794872,0.439338439338439,33.3610745924525
1743439854154,12:50:54.154,-1,-1,1720.14652014652,0.437562437562438,33.3610745924525
1743439854173,12:50:54.173,-1,-1,1728.20512820513,0.437562437562438,33.3610745924525
1743439854193,12:50:54.193,-1,-1,1728.20512820513,0.438450438450438,33.3610745924525
1743439854212,12:50:54.212,-1,-1,1718.68131868132,0.43978243978244,33.3610745924525
1743439854232,12:50:54.232,-1,-1,1701.8315018315,0.43978243978244,33.3610745924525
1743439854251,12:50:54.251,-1,-1,1665.20146520146,0.438894438894439,33.3610745924525
1743439854271,12:50:54.271,-1,-1,1619.78021978022,0.437118437118437,33.3610745924525
1743439854290,12:50:54.290,-1,-1,1572.89377289377,0.437562437562438,33.3610745924525
1743439854310,12:50:54.310,-1,-1,1531.86813186813,0.438894438894439,33.3610745924525
1743439854329,12:50:54.329,-1,-1,1506.22710622711,0.43978243978244,33.3710814099759
1743439854349,12:50:54.349,-1,-1,1484.98168498168,0.43978243978244,33.3710814099759
1743439854368,12:50:54.368,-1,-1,1469.59706959707,0.438006438006438,33.3710814099759
1743439854388,12:50:54.388,63,-1,1454.21245421245,0.437118437118437,33.3710814099759
1743439854407,12:50:54.407,63,-1,1443.95604395604,0.437118437118437,33.3710814099759
1743439854427,12:50:54.427,63,-1,1432.96703296703,0.438450438450438,33.3710814099759
1743439854446,12:50:54.446,63,-1,1424.17582417582,0.43978243978244,33.3710814099759
1743439854466,12:50:54.466,63,-1,1402.9304029304,0.439338439338439,33.3710814099759
1743439854485,12:50:54.485,63,-1,1378.75457875458,0.437562437562438,33.3710814099759
1743439854505,12:50:54.505,63,-1,1358.97435897436,0.436674436674437,33.3710814099759
1743439854524,12:50:54.524,63,-1,1338.46153846154,0.437118437118437,33.3710814099759
1743439854544,12:50:54.544,63,-1,1323.80952380952,0.438450438450438,33.3710814099759
1743439854563,12:50:54.563,63,-1,1310.62271062271,0.439338439338439,33.3710814099759
1743439854583,12:50:54.583,63,-1,1282.78388278388,0.438894438894439,33.3710814099759
1743439854602,12:50:54.602,63,-1,1264.46886446886,0.437118437118437,33.3710814099759
1743439854622,12:50:54.622,63,-1,1260.80586080586,0.436230436230436,33.3710814099759
1743439854641,12:50:54.641,63,-1,1261.53846153846,0.436674436674437,33.3710814099759
1743439854661,12:50:54.661,63,-1,1265.20146520147,0.438450438450438,33.3710814099759
1743439854680,12:50:54.680,63,-1,1265.20146520147,0.438894438894439,33.3710814099759
1743439854700,12:50:54.700,63,-1,1261.53846153846,0.438006438006438,33.3710814099759
1743439854719,12:50:54.719,63,-1,1240.29304029304,0.436674436674437,33.3710814099759
1743439854739,12:50:54.739,63,-1,1228.57142857143,0.435786435786436,33.3710814099759
1743439854758,12:50:54.758,63,-1,1233.69963369963,0.436230436230436,33.3710814099759
1743439854778,12:50:54.778,63,-1,1231.50183150183,0.438006438006438,33.3710814099759
1743439854797,12:50:54.797,63,-1,1223.44322344322,0.438450438450438,33.3710814099759
1743439854817,12:50:54.817,63,-1,1223.44322344322,0.438006438006438,33.3710814099759
1743439854836,12:50:54.836,63,-1,1215.38461538462,0.436230436230436,33.3710814099759
1743439854856,12:50:54.856,63,-1,1202.1978021978,0.435786435786436,33.3710814099759
1743439854875,12:50:54.875,63,-1,1186.08058608059,0.436674436674437,33.3710814099759
1743439854895,12:50:54.895,63,-1,1204.3956043956,0.438006438006438,33.3710814099759
1743439854914,12:50:54.914,63,-1,1254.21245421245,0.438450438450438,33.3710814099759
1743439854934,12:50:54.934,63,-1,1331.86813186813,0.437562437562438,33.3710814099759
1743439854953,12:50:54.953,63,-1,1416.84981684982,0.435342435342435,33.3710814099759
1743439854973,12:50:54.973,63,-1,1514.28571428571,0.435342435342435,33.3710814099759
1743439854992,12:50:54.992,63,-1,1601.4652014652,0.436230436230436,33.3710814099759
1743439855012,12:50:55.012,63,-1,1665.93406593407,0.438006438006438,33.3710814099759
1743439855031,12:50:55.031,63,-1,1709.89010989011,0.437562437562438,33.3710814099759
1743439855051,12:50:55.051,63,-1,1728.93772893773,0.436674436674437,33.3710814099759
1743439855070,12:50:55.070,63,-1,1723.07692307692,0.435342435342435,33.3710814099759
1743439855090,12:50:55.090,63,-1,1723.80952380952,0.435342435342435,33.3710814099759
1743439855109,12:50:55.109,63,-1,1730.40293040293,0.436230436230436,33.3710814099759
1743439855129,12:50:55.129,63,-1,1726.73992673993,0.437562437562438,33.3710814099759
1743439855148,12:50:55.148,63,-1,1681.31868131868,0.437562437562438,33.3710814099759
1743439855168,12:50:55.168,63,-1,1636.63003663004,0.436230436230436,33.3710814099759
1743439855187,12:50:55.187,63,-1,1597.8021978022,0.434898434898435,33.3710814099759
1743439855207,12:50:55.207,63,-1,1561.90476190476,0.435342435342435,33.3710814099759
1743439855226,12:50:55.226,63,-1,1540.65934065934,0.436674436674437,33.3710814099759
1743439855246,12:50:55.246,63,-1,1529.67032967033,0.438006438006438,33.3710814099759
1743439855265,12:50:55.265,63,-1,1526.00732600733,0.437562437562438,33.3710814099759
1743439855285,12:50:55.285,72,-1,1518.68131868132,0.436230436230436,33.3710814099759
1743439855304,12:50:55.304,72,-1,1498.9010989011,0.434898434898435,33.3710814099759
1743439855324,12:50:55.324,72,-1,1473.99267399267,0.435342435342435,33.3810882042162
1743439855343,12:50:55.343,72,-1,1447.61904761905,0.436674436674437,33.3810882042162
1743439855363,12:50:55.363,72,-1,1421.24542124542,0.437562437562438,33.3810882042162
1743439855382,12:50:55.382,72,-1,1399.2673992674,0.437118437118437,33.3810882042162
1743439855402,12:50:55.402,72,-1,1382.41758241758,0.435342435342435,33.3810882042162
1743439855421,12:50:55.421,72,-1,1362.63736263736,0.434898434898435,33.3810882042162
1743439855441,12:50:55.441,72,-1,1352.38095238095,0.435342435342435,33.3810882042162
1743439855460,12:50:55.460,72,-1,1334.79853479853,0.436674436674437,33.3810882042162
1743439855480,12:50:55.480,72,-1,1312.82051282051,0.437562437562438,33.3810882042162
1743439855499,12:50:55.499,72,-1,1295.2380952381,0.437118437118437,33.3810882042162
1743439855519,12:50:55.519,72,-1,1287.91208791209,0.435342435342435,33.3810882042162
1743439855538,12:50:55.538,72,-1,1281.31868131868,0.434454434454434,33.3810882042162
1743439855558,12:50:55.558,72,-1,1272.52747252747,0.434898434898435,33.3810882042162
1743439855577,12:50:55.577,72,-1,1260.80586080586,0.436674436674437,33.3810882042162
1743439855597,12:50:55.597,72,-1,1254.21245421245,0.437118437118437,33.3810882042162
1743439855616,12:50:55.616,72,-1,1253.47985347985,0.436674436674437,33.3810882042162
1743439855636,12:50:55.636,72,-1,1251.28205128205,0.434898434898435,33.3810882042162
1743439855655,12:50:55.655,72,-1,1240.29304029304,0.434454434454434,33.3810882042162
1743439855675,12:50:55.675,72,-1,1217.58241758242,0.434898434898435,33.3810882042162
1743439855694,12:50:55.694,72,-1,1213.18681318681,0.436674436674437,33.3810882042162
1743439855714,12:50:55.714,72,-1,1223.44322344322,0.437118437118437,33.3810882042162
1743439855733,12:50:55.733,72,-1,1242.49084249084,0.436230436230436,33.3810882042162
1743439855753,12:50:55.753,72,-1,1266.66666666667,0.434454434454434,33.3810882042162
1743439855772,12:50:55.772,72,-1,1324.54212454212,0.434010434010434,33.3810882042162
1743439855792,12:50:55.792,72,-1,1405.12820512821,0.434898434898435,33.3810882042162
1743439855811,12:50:55.811,72,-1,1513.55311355311,0.436674436674437,33.3810882042162
1743439855831,12:50:55.831,72,-1,1624.17582417582,0.436674436674437,33.3810882042162
1743439855850,12:50:55.850,72,-1,1691.57509157509,0.435786435786436,33.3810882042162
1743439855870,12:50:55.870,72,-1,1731.86813186813,0.434010434010434,33.3810882042162
1743439855889,12:50:55.889,72,-1,1745.78754578755,0.434010434010434,33.3810882042162
1743439855909,12:50:55.909,72,-1,1756.77655677656,0.434898434898435,33.3810882042162
1743439855928,12:50:55.928,72,-1,1769.23076923077,0.436230436230436,33.3810882042162
1743439855948,12:50:55.948,72,-1,1771.42857142857,0.436674436674437,33.3810882042162
1743439855967,12:50:55.967,72,-1,1767.03296703297,0.435342435342435,33.3810882042162
1743439855987,12:50:55.987,72,-1,1747.98534798535,0.434010434010434,33.3810882042162
1743439856006,12:50:56.006,72,-1,1712.82051282051,0.434010434010434,33.3810882042162
1743439856026,12:50:56.026,72,-1,1666.66666666667,0.434898434898435,33.3810882042162
1743439856045,12:50:56.045,72,-1,1611.72161172161,0.436230436230436,33.3810882042162
1743439856065,12:50:56.065,72,-1,1568.49816849817,0.436230436230436,33.3810882042162
1743439856084,12:50:56.084,72,-1,1543.58974358974,0.434898434898435,33.3810882042162
1743439856104,12:50:56.104,72,-1,1521.61172161172,0.433566433566433,33.3810882042162
1743439856123,12:50:56.123,72,-1,1512.08791208791,0.433566433566433,33.3810882042162
1743439856143,12:50:56.143,72,-1,1496.7032967033,0.434898434898435,33.3810882042162
1743439856162,12:50:56.162,72,-1,1484.98168498168,0.436230436230436,33.3810882042162
1743439856182,12:50:56.182,67,-1,1463.00366300366,0.435786435786436,33.3810882042162
1743439856201,12:50:56.201,67,-1,1454.94505494505,0.434454434454434,33.3810882042162
1743439856221,12:50:56.221,67,-1,1434.43223443223,0.433122433122433,33.3810882042162
1743439856240,12:50:56.240,67,-1,1400.7326007326,0.433566433566433,33.3810882042162
1743439856260,12:50:56.260,67,-1,1372.16117216117,0.434898434898435,33.3810882042162
1743439856279,12:50:56.279,67,-1,1344.32234432234,0.435786435786436,33.3810882042162
1743439856299,12:50:56.299,67,-1,1322.34432234432,0.435342435342435,33.3810882042162
1743439856318,12:50:56.318,67,-1,1303.2967032967,0.434010434010434,33.3860915926052
1743439856338,12:50:56.338,67,-1,1284.98168498168,0.433122433122433,33.3860915926052
1743439856357,12:50:56.357,67,-1,1284.98168498168,0.433566433566433,33.3860915926052
1743439856377,12:50:56.377,67,-1,1277.65567765568,0.434898434898435,33.3860915926052
1743439856396,12:50:56.396,67,-1,1262.27106227106,0.435786435786436,33.3860915926052
1743439856416,12:50:56.416,67,-1,1255.67765567766,0.434898434898435,33.3860915926052
1743439856435,12:50:56.435,67,-1,1241.75824175824,0.433566433566433,33.3860915926052
1743439856455,12:50:56.455,67,-1,1237.36263736264,0.432678432678433,33.3860915926052
1743439856475,12:50:56.474,67,-1,1231.50183150183,0.433122433122433,33.3860915926052
1743439856494,12:50:56.494,67,-1,1230.03663003663,0.434898434898435,33.3860915926052
1743439856514,12:50:56.513,67,-1,1233.69963369963,0.435342435342435,33.3860915926052
1743439856533,12:50:56.533,67,-1,1227.10622710623,0.434898434898435,33.3860915926052
1743439856553,12:50:56.552,67,-1,1213.91941391941,0.433122433122433,33.3860915926052
1743439856572,12:50:56.572,67,-1,1192.67399267399,0.432678432678433,33.3860915926052
1743439856592,12:50:56.592,67,-1,1184.61538461538,0.433122433122433,33.3860915926052
1743439856611,12:50:56.611,67,-1,1189.01098901099,0.434898434898435,33.3860915926052
1743439856631,12:50:56.631,67,-1,1213.18681318681,0.435342435342435,33.3860915926052
1743439856650,12:50:56.650,67,-1,1276.19047619048,0.434454434454434,33.3860915926052
1743439856670,12:50:56.670,67,-1,1379.48717948718,0.432678432678433,33.3860915926052
1743439856689,12:50:56.689,67,-1,1499.6336996337,0.432234432234432,33.3860915926052
1743439856709,12:50:56.709,67,-1,1601.4652014652,0.433122433122433,33.3860915926052
1743439856728,12:50:56.728,67,-1,1671.79487179487,0.434898434898435,33.3860915926052
1743439856748,12:50:56.748,67,-1,1734.06593406593,0.435342435342435,33.3860915926052
1743439856767,12:50:56.767,67,-1,1780.95238095238,0.434010434010434,33.3860915926052
1743439856787,12:50:56.787,67,-1,1808.05860805861,0.432234432234432,33.3860915926052
1743439856806,12:50:56.806,67,-1,1841.02564102564,0.432234432234432,33.3860915926052
1743439856826,12:50:56.826,67,-1,1855.67765567766,0.433122433122433,33.3860915926052
1743439856845,12:50:56.845,67,-1,1851.28205128205,0.434898434898435,33.3860915926052
1743439856865,12:50:56.865,67,-1,1827.83882783883,0.434898434898435,33.3860915926052
1743439856884,12:50:56.884,67,-1,1800.7326007326,0.433566433566433,33.3860915926052
1743439856904,12:50:56.904,67,-1,1749.45054945055,0.432234432234432,33.3860915926052
1743439856923,12:50:56.923,67,-1,1686.44688644689,0.432234432234432,33.3860915926052
1743439856943,12:50:56.943,67,-1,1635.16483516484,0.433566433566433,33.3860915926052
1743439856962,12:50:56.962,67,-1,1599.2673992674,0.434898434898435,33.3860915926052
1743439856982,12:50:56.982,67,-1,1569.96336996337,0.434454434454434,33.3860915926052
1743439857001,12:50:57.001,67,-1,1553.84615384615,0.433122433122433,33.3860915926052
1743439857021,12:50:57.021,67,-1,1534.06593406593,0.431790431790432,33.3860915926052
1743439857040,12:50:57.040,67,-1,1510.62271062271,0.431790431790432,33.3860915926052
1743439857060,12:50:57.060,67,-1,1489.37728937729,0.433566433566433,33.3860915926052
1743439857079,12:50:57.079,67,-1,1462.27106227106,0.434454434454434,33.3860915926052
1743439857099,12:50:57.099,67,-1,1427.10622710623,0.434010434010434,33.3860915926052
1743439857118,12:50:57.118,67,-1,1393.40659340659,0.432678432678433,33.3860915926052
1743439857138,12:50:57.138,67,-1,1348.71794871795,0.431790431790432,33.3860915926052
1743439857157,12:50:57.157,67,-1,1323.80952380952,0.431790431790432,33.3860915926052
1743439857177,12:50:57.177,67,-1,1316.48351648352,0.433122433122433,33.3860915926052
1743439857196,12:50:57.196,67,-1,1304.7619047619,0.434454434454434,33.3860915926052
1743439857216,12:50:57.216,67,-1,1289.37728937729,0.434010434010434,33.3860915926052
1743439857235,12:50:57.235,67,-1,1279.85347985348,0.432234432234432,33.3860915926052
1743439857255,12:50:57.255,67,-1,1270.32967032967,0.431346431346431,33.3860915926052
1743439857274,12:50:57.274,67,-1,1252.01465201465,0.431790431790432,33.3860915926052
1743439857294,12:50:57.294,67,-1,1243.22344322344,0.433122433122433,33.3860915926052
1743439857313,12:50:57.313,67,-1,1237.36263736264,0.434010434010434,33.396098351921
1743439857333,12:50:57.333,67,-1,1232.96703296703,0.433566433566433,33.396098351921
1743439857352,12:50:57.352,67,-1,1232.23443223443,0.431790431790432,33.396098351921
1743439857372,12:50:57.372,67,-1,1221.97802197802,0.431346431346431,33.396098351921
1743439857391,12:50:57.391,67,-1,1212.45421245421,0.431790431790432,33.396098351921
1743439857411,12:50:57.411,67,-1,1200.7326007326,0.433566433566433,33.396098351921
1743439857430,12:50:57.430,67,-1,1183.15018315018,0.434010434010434,33.396098351921
1743439857450,12:50:57.450,67,-1,1170.69597069597,0.433566433566433,33.396098351921
1743439857469,12:50:57.469,67,-1,1182.41758241758,0.431790431790432,33.396098351921
1743439857489,12:50:57.489,67,-1,1180.21978021978,0.431346431346431,33.396098351921
1743439857508,12:50:57.508,67,-1,1162.63736263736,0.431790431790432,33.396098351921
1743439857528,12:50:57.528,67,-1,1158.97435897436,0.433566433566433,33.396098351921
1743439857547,12:50:57.547,67,-1,1167.03296703297,0.434010434010434,33.396098351921
1743439857567,12:50:57.567,67,-1,1178.75457875458,0.433122433122433,33.396098351921
1743439857586,12:50:57.586,67,-1,1198.5347985348,0.431346431346431,33.396098351921
1743439857606,12:50:57.606,67,-1,1247.61904761905,0.430902430902431,33.396098351921
1743439857625,12:50:57.625,67,-1,1333.33333333333,0.431790431790432,33.396098351921
1743439857645,12:50:57.645,67,-1,1444.68864468864,0.433122433122433,33.396098351921
1743439857664,12:50:57.664,67,-1,1550.18315018315,0.433566433566433,33.396098351921
1743439857684,12:50:57.684,67,-1,1642.49084249084,0.432234432234432,33.396098351921
1743439857703,12:50:57.703,67,-1,1717.94871794872,0.430902430902431,33.396098351921
1743439857723,12:50:57.723,67,-1,1758.97435897436,0.430902430902431,33.396098351921
1743439857742,12:50:57.742,67,-1,1783.15018315018,0.431790431790432,33.396098351921
1743439857762,12:50:57.762,67,-1,1807.32600732601,0.433122433122433,33.396098351921
1743439857781,12:50:57.781,67,-1,1810.98901098901,0.433566433566433,33.396098351921
1743439857801,12:50:57.801,67,-1,1794.87179487179,0.432234432234432,33.396098351921
1743439857820,12:50:57.820,67,-1,1786.08058608059,0.43045843045843,33.396098351921
1743439857840,12:50:57.840,67,-1,1783.15018315018,0.430902430902431,33.396098351921
1743439857859,12:50:57.859,67,-1,1768.49816849817,0.431790431790432,33.396098351921
1743439857879,12:50:57.879,67,-1,1722.34432234432,0.433122433122433,33.396098351921
1743439857898,12:50:57.898,67,-1,1663.73626373626,0.433122433122433,33.396098351921
1743439857918,12:50:57.918,67,-1,1613.18681318681,0.431790431790432,33.396098351921
1743439857937,12:50:57.937,67,-1,1565.56776556777,0.43045843045843,33.396098351921
1743439857957,12:50:57.957,67,-1,1531.86813186813,0.43045843045843,33.396098351921
1743439857976,12:50:57.976,67,-1,1512.82051282051,0.432234432234432,33.396098351921
1743439857996,12:50:57.996,67,-1,1501.0989010989,0.433122433122433,33.396098351921
1743439858015,12:50:58.015,67,-1,1494.50549450549,0.432678432678433,33.396098351921
1743439858035,12:50:58.035,67,-1,1472.52747252747,0.430902430902431,33.396098351921
1743439858054,12:50:58.054,67,-1,1441.75824175824,0.43001443001443,33.396098351921
1743439858074,12:50:58.074,63,-1,1406.59340659341,0.43045843045843,33.396098351921
1743439858093,12:50:58.093,63,-1,1380.21978021978,0.431790431790432,33.396098351921
1743439858113,12:50:58.113,63,-1,1362.63736263736,0.432678432678433,33.396098351921
1743439858132,12:50:58.132,63,-1,1336.26373626374,0.432234432234432,33.396098351921
1743439858152,12:50:58.152,63,-1,1312.82051282051,0.43045843045843,33.396098351921
1743439858171,12:50:58.171,63,-1,1285.71428571429,0.42957042957043,33.396098351921
1743439858191,12:50:58.191,63,-1,1272.52747252747,0.43001443001443,33.396098351921
1743439858210,12:50:58.210,63,-1,1265.20146520147,0.431790431790432,33.396098351921
1743439858230,12:50:58.230,63,-1,1239.56043956044,0.432678432678433,33.396098351921
1743439858249,12:50:58.249,63,-1,1214.65201465201,0.432234432234432,33.396098351921
1743439858269,12:50:58.269,63,-1,1207.32600732601,0.43045843045843,33.396098351921
1743439858288,12:50:58.288,63,-1,1210.25641025641,0.42957042957043,33.396098351921
1743439858308,12:50:58.308,63,-1,1214.65201465201,0.43045843045843,33.4011017228477
1743439858327,12:50:58.327,63,-1,1210.98901098901,0.431790431790432,33.4011017228477
1743439858347,12:50:58.347,63,-1,1193.40659340659,0.432678432678433,33.4011017228477
1743439858366,12:50:58.366,63,-1,1175.09157509158,0.431790431790432,33.4011017228477
1743439858386,12:50:58.386,63,-1,1182.41758241758,0.43001443001443,33.4011017228477
1743439858405,12:50:58.405,63,-1,1189.74358974359,0.43001443001443,33.4011017228477
1743439858425,12:50:58.425,63,-1,1190.47619047619,0.43045843045843,33.4011017228477
1743439858444,12:50:58.444,63,-1,1189.74358974359,0.432234432234432,33.4011017228477
1743439858464,12:50:58.464,63,-1,1184.61538461538,0.432234432234432,33.4011017228477
1743439858483,12:50:58.483,63,-1,1180.21978021978,0.431346431346431,33.4011017228477
1743439858503,12:50:58.503,63,-1,1170.69597069597,0.42957042957043,33.4011017228477
1743439858522,12:50:58.522,63,-1,1164.83516483516,0.42957042957043,33.4011017228477
1743439858542,12:50:58.542,63,-1,1156.77655677656,0.43001443001443,33.4011017228477
1743439858561,12:50:58.561,63,-1,1147.98534798535,0.431790431790432,33.4011017228477
1743439858581,12:50:58.581,63,-1,1145.05494505494,0.431790431790432,33.4011017228477
1743439858600,12:50:58.600,63,-1,1173.62637362637,0.430902430902431,33.4011017228477
1743439858620,12:50:58.620,63,-1,1235.16483516484,0.42957042957043,33.4011017228477
1743439858639,12:50:58.639,63,-1,1318.68131868132,0.429126429126429,33.4011017228477
1743439858659,12:50:58.659,63,-1,1419.04761904762,0.43045843045843,33.4011017228477
1743439858678,12:50:58.678,63,-1,1526.73992673993,0.431790431790432,33.4011017228477
1743439858698,12:50:58.698,63,-1,1627.83882783883,0.431790431790432,33.4011017228477
1743439858717,12:50:58.717,63,-1,1721.61172161172,0.43045843045843,33.4011017228477
1743439858737,12:50:58.737,63,-1,1776.55677655678,0.42957042957043,33.4011017228477
1743439858756,12:50:58.756,63,-1,1799.2673992674,0.42957042957043,33.4011017228477
1743439858776,12:50:58.776,63,-1,1802.1978021978,0.430902430902431,33.4011017228477
1743439858795,12:50:58.795,63,-1,1775.82417582418,0.432234432234432,33.4011017228477
1743439858815,12:50:58.815,63,-1,1750.18315018315,0.432234432234432,33.4011017228477
1743439858834,12:50:58.834,63,-1,1744.32234432234,0.430902430902431,33.4011017228477
1743439858854,12:50:58.854,63,-1,1734.79853479853,0.43001443001443,33.4011017228477
1743439858873,12:50:58.873,63,-1,1710.62271062271,0.43001443001443,33.4011017228477
1743439858893,12:50:58.893,63,-1,1665.93406593407,0.431346431346431,33.4011017228477
1743439858912,12:50:58.912,63,-1,1616.84981684982,0.432678432678433,33.4011017228477
1743439858932,12:50:58.932,63,-1,1578.02197802198,0.432678432678433,33.4011017228477
1743439858951,12:50:58.951,63,-1,1555.31135531136,0.431346431346431,33.4011017228477
1743439858971,12:50:58.971,63,-1,1536.26373626374,0.43045843045843,33.4011017228477
1743439858990,12:50:58.990,64,-1,1512.08791208791,0.430902430902431,33.4011017228477
1743439859010,12:50:59.010,64,-1,1493.04029304029,0.432678432678433,33.4011017228477
1743439859029,12:50:59.029,64,-1,1467.39926739927,0.433122433122433,33.4011017228477
1743439859049,12:50:59.049,64,-1,1444.68864468864,0.432678432678433,33.4011017228477
1743439859068,12:50:59.068,64,-1,1418.31501831502,0.431346431346431,33.4011017228477
1743439859088,12:50:59.088,64,-1,1389.01098901099,0.43045843045843,33.4011017228477
1743439859107,12:50:59.107,64,-1,1365.56776556777,0.430902430902431,33.4011017228477
1743439859127,12:50:59.127,64,-1,1352.38095238095,0.432678432678433,33.4011017228477
1743439859146,12:50:59.146,64,-1,1327.47252747253,0.433122433122433,33.4011017228477
1743439859166,12:50:59.166,64,-1,1310.62271062271,0.432678432678433,33.4011017228477
1743439859185,12:50:59.185,64,-1,1293.77289377289,0.430902430902431,33.4011017228477
1743439859205,12:50:59.205,64,-1,1279.85347985348,0.43045843045843,33.4011017228477
1743439859224,12:50:59.224,64,-1,1255.67765567766,0.430902430902431,33.4011017228477
1743439859244,12:50:59.244,64,-1,1232.96703296703,0.432678432678433,33.4011017228477
1743439859263,12:50:59.263,64,-1,1210.25641025641,0.433122433122433,33.4011017228477
1743439859283,12:50:59.283,64,-1,1199.2673992674,0.432678432678433,33.4011017228477
1743439859302,12:50:59.302,64,-1,1200.7326007326,0.430902430902431,33.4111084472388
1743439859322,12:50:59.322,64,-1,1199.2673992674,0.43045843045843,33.4111084472388
1743439859341,12:50:59.341,64,-1,1204.3956043956,0.431346431346431,33.4111084472388
1743439859361,12:50:59.361,64,-1,1212.45421245421,0.433122433122433,33.4111084472388
1743439859380,12:50:59.380,64,-1,1213.91941391941,0.433122433122433,33.4111084472388
1743439859400,12:50:59.400,64,-1,1208.79120879121,0.432234432234432,33.4111084472388
1743439859419,12:50:59.419,64,-1,1193.40659340659,0.43045843045843,33.4111084472388
1743439859439,12:50:59.439,64,-1,1183.88278388278,0.43045843045843,33.4111084472388
1743439859458,12:50:59.458,64,-1,1186.08058608059,0.431346431346431,33.4111084472388
1743439859478,12:50:59.478,64,-1,1185.34798534799,0.433122433122433,33.4111084472388
1743439859497,12:50:59.497,64,-1,1178.75457875458,0.433122433122433,33.4111084472388
1743439859517,12:50:59.517,64,-1,1177.28937728938,0.432234432234432,33.4111084472388
1743439859536,12:50:59.536,64,-1,1169.96336996337,0.43045843045843,33.4111084472388
1743439859556,12:50:59.556,64,-1,1170.69597069597,0.43045843045843,33.4111084472388
1743439859575,12:50:59.575,64,-1,1176.55677655678,0.431790431790432,33.4111084472388
1743439859595,12:50:59.595,64,-1,1182.41758241758,0.433566433566433,33.4111084472388
1743439859614,12:50:59.614,64,-1,1230.03663003663,0.433566433566433,33.4111084472388
1743439859634,12:50:59.634,64,-1,1304.7619047619,0.432234432234432,33.4111084472388
1743439859653,12:50:59.653,64,-1,1396.336996337,0.431346431346431,33.4111084472388
1743439859673,12:50:59.673,64,-1,1491.57509157509,0.431346431346431,33.4111084472388
1743439859692,12:50:59.692,64,-1,1573.62637362637,0.432678432678433,33.4111084472388
1743439859712,12:50:59.712,64,-1,1638.09523809524,0.434010434010434,33.4111084472388
1743439859731,12:50:59.731,64,-1,1690.84249084249,0.434010434010434,33.4111084472388
1743439859751,12:50:59.751,64,-1,1714.28571428571,0.433122433122433,33.4111084472388
1743439859770,12:50:59.770,64,-1,1700.3663003663,0.431790431790432,33.4111084472388
1743439859790,12:50:59.790,64,-1,1686.44688644689,0.432234432234432,33.4111084472388
1743439859809,12:50:59.809,64,-1,1679.12087912088,0.433566433566433,33.4111084472388
1743439859829,12:50:59.829,64,-1,1677.65567765568,0.434010434010434,33.4111084472388
1743439859848,12:50:59.848,65,-1,1673.26007326007,0.434010434010434,33.4111084472388
1743439859868,12:50:59.868,65,-1,1657.87545787546,0.432678432678433,33.4111084472388
1743439859887,12:50:59.887,65,-1,1624.90842490842,0.43045843045843,33.4111084472388
1743439859907,12:50:59.907,65,-1,1582.41758241758,0.43001443001443,33.4111084472388
1743439859926,12:50:59.926,65,-1,1541.39194139194,0.430902430902431,33.4111084472388
1743439859946,12:50:59.946,65,-1,1519.41391941392,0.430902430902431,33.4111084472388
1743439859965,12:50:59.965,65,-1,1486.44688644689,0.42957042957043,33.4111084472388
1743439859985,12:50:59.985,65,-1,1460.80586080586,0.425574425574426,33.4111084472388
1743439860004,12:51:00.004,65,-1,1446.88644688645,0.423798423798424,33.4111084472388
1743439860024,12:51:00.024,65,-1,1421.24542124542,0.422466422466422,33.4111084472388
1743439860043,12:51:00.043,65,-1,1413.91941391941,0.423354423354423,33.4111084472388
1743439860063,12:51:00.063,65,-1,1408.79120879121,0.422910422910423,33.4111084472388
1743439860082,12:51:00.082,65,-1,1400.7326007326,0.421578421578421,33.4111084472388
1743439860102,12:51:00.102,65,-1,1380.95238095238,0.418914418914419,33.4111084472388
1743439860121,12:51:00.121,65,-1,1349.45054945055,0.417582417582417,33.4111084472388
1743439860141,12:51:00.141,65,-1,1320.87912087912,0.418026418026418,33.4111084472388
1743439860160,12:51:00.160,65,-1,1293.77289377289,0.419358419358419,33.4111084472388
1743439860180,12:51:00.180,65,-1,1277.65567765568,0.419358419358419,33.4111084472388
1743439860199,12:51:00.199,65,-1,1277.65567765568,0.418470418470418,33.4111084472388
1743439860219,12:51:00.219,65,-1,1274.72527472527,0.416250416250416,33.4111084472388
1743439860238,12:51:00.238,65,-1,1263.73626373626,0.415806415806416,33.4111084472388
1743439860258,12:51:00.258,65,-1,1253.47985347985,0.416250416250416,33.4111084472388
1743439860277,12:51:00.277,65,-1,1249.08424908425,0.418026418026418,33.4111084472388
1743439860297,12:51:00.297,65,-1,1246.88644688645,0.418470418470418,33.4111084472388
1743439860316,12:51:00.316,65,-1,1240.29304029304,0.417582417582417,33.4111084472388
1743439860336,12:51:00.336,65,-1,1232.23443223443,0.415362415362415,33.4111084472388
1743439860355,12:51:00.355,65,-1,1225.64102564103,0.415362415362415,33.4111084472388
1743439860375,12:51:00.375,65,-1,1219.78021978022,0.416250416250416,33.4111084472388
1743439860394,12:51:00.394,65,-1,1213.91941391941,0.418470418470418,33.4111084472388
1743439860414,12:51:00.414,65,-1,1202.9304029304,0.418914418914419,33.4111084472388
1743439860433,12:51:00.433,65,-1,1199.2673992674,0.418914418914419,33.4111084472388
1743439860453,12:51:00.453,65,-1,1195.6043956044,0.418026418026418,33.4111084472388
1743439860472,12:51:00.472,65,-1,1210.25641025641,0.418026418026418,33.4111084472388
1743439860492,12:51:00.492,65,-1,1241.75824175824,0.41980241980242,33.4111084472388
1743439860511,12:51:00.511,65,-1,1318.68131868132,0.421134421134421,33.4111084472388
1743439860531,12:51:00.531,65,-1,1421.24542124542,0.420690420690421,33.4111084472388
1743439860550,12:51:00.550,65,-1,1517.94871794872,0.418470418470418,33.4111084472388
1743439860570,12:51:00.570,65,-1,1616.11721611722,0.415806415806416,33.4111084472388
1743439860589,12:51:00.589,65,-1,1695.2380952381,0.414474414474414,33.4111084472388
1743439860609,12:51:00.609,65,-1,1733.33333333333,0.415806415806416,33.4111084472388
1743439860628,12:51:00.628,65,-1,1743.58974358974,0.415806415806416,33.4111084472388
1743439860648,12:51:00.648,65,-1,1738.46153846154,0.414474414474414,33.4111084472388
1743439860667,12:51:00.667,65,-1,1726.73992673993,0.411810411810412,33.4111084472388
1743439860687,12:51:00.687,65,-1,1713.55311355311,0.409146409146409,33.4111084472388
1743439860706,12:51:00.706,65,-1,1689.37728937729,0.408702408702409,33.4111084472388
1743439860726,12:51:00.726,65,-1,1643.95604395604,0.41003441003441,33.4111084472388
1743439860745,12:51:00.745,70,-1,1591.20879120879,0.413586413586413,33.4111084472388
1743439860765,12:51:00.765,70,-1,1550.91575091575,0.413586413586413,33.4111084472388
1743439860784,12:51:00.784,70,-1,1528.20512820513,0.412698412698413,33.4111084472388
1743439860804,12:51:00.804,70,-1,1514.28571428571,0.412698412698413,33.4111084472388
1743439860823,12:51:00.823,70,-1,1515.01831501831,0.415362415362415,33.4111084472388
1743439860843,12:51:00.843,70,-1,1516.48351648352,0.418026418026418,33.4111084472388
1743439860862,12:51:00.862,70,-1,1506.22710622711,0.41980241980242,33.4111084472388
1743439860882,12:51:00.882,70,-1,1465.93406593407,0.42024642024642,33.4111084472388
1743439860901,12:51:00.901,70,-1,1433.69963369963,0.418026418026418,33.4111084472388
1743439860921,12:51:00.921,70,-1,1416.84981684982,0.417138417138417,33.4111084472388
1743439860940,12:51:00.940,70,-1,1401.4652014652,0.418026418026418,33.4111084472388
1743439860960,12:51:00.960,70,-1,1383.15018315018,0.41980241980242,33.4111084472388
1743439860979,12:51:00.979,70,-1,1361.90476190476,0.420690420690421,33.4111084472388
1743439860999,12:51:00.999,70,-1,1333.33333333333,0.41980241980242,33.4111084472388
1743439861018,12:51:01.018,70,-1,1297.4358974359,0.417582417582417,33.4111084472388
1743439861038,12:51:01.038,70,-1,1280.58608058608,0.416694416694417,33.4111084472388
1743439861057,12:51:01.057,70,-1,1269.59706959707,0.417582417582417,33.4111084472388
1743439861077,12:51:01.077,70,-1,1264.46886446886,0.41980241980242,33.4111084472388
1743439861096,12:51:01.096,70,-1,1256.41025641026,0.42024642024642,33.4111084472388
1743439861116,12:51:01.116,70,-1,1249.81684981685,0.419358419358419,33.4111084472388
1743439861135,12:51:01.135,70,-1,1249.81684981685,0.417582417582417,33.4111084472388
1743439861155,12:51:01.155,70,-1,1244.68864468864,0.417138417138417,33.4111084472388
1743439861174,12:51:01.174,70,-1,1238.82783882784,0.417138417138417,33.4111084472388
1743439861194,12:51:01.194,70,-1,1230.03663003663,0.419358419358419,33.4111084472388
1743439861213,12:51:01.213,70,-1,1227.83882783883,0.419358419358419,33.4111084472388
1743439861233,12:51:01.233,70,-1,1235.16483516484,0.418470418470418,33.4111084472388
1743439861252,12:51:01.252,70,-1,1230.03663003663,0.416250416250416,33.4111084472388
1743439861272,12:51:01.272,70,-1,1227.83882783883,0.416250416250416,33.4111084472388
1743439861291,12:51:01.291,70,-1,1236.63003663004,0.417138417138417,33.4211151483469
1743439861311,12:51:01.311,70,-1,1247.61904761905,0.418470418470418,33.4211151483469
1743439861330,12:51:01.330,70,-1,1276.92307692308,0.418026418026418,33.4211151483469
1743439861350,12:51:01.350,70,-1,1333.33333333333,0.415806415806416,33.4211151483469
1743439861369,12:51:01.369,70,-1,1411.72161172161,0.413142413142413,33.4211151483469
1743439861389,12:51:01.389,70,-1,1515.01831501831,0.412254412254412,33.4211151483469
1743439861408,12:51:01.408,70,-1,1630.76923076923,0.413142413142413,33.4211151483469
1743439861428,12:51:01.428,70,-1,1731.86813186813,0.414030414030414,33.4211151483469
1743439861447,12:51:01.447,70,-1,1787.54578754579,0.414918414918415,33.4211151483469
1743439861467,12:51:01.467,70,-1,1804.3956043956,0.414918414918415,33.4211151483469
1743439861486,12:51:01.486,70,-1,1817.58241758242,0.414030414030414,33.4211151483469
1743439861506,12:51:01.506,70,-1,1825.64102564103,0.418470418470418,33.4211151483469
1743439861525,12:51:01.525,70,-1,1816.84981684982,0.423354423354423,33.4211151483469
1743439861545,12:51:01.545,70,-1,1787.54578754579,0.427350427350427,33.4211151483469
1743439861564,12:51:01.564,70,-1,1756.77655677656,0.426906426906427,33.4211151483469
1743439861584,12:51:01.584,70,-1,1719.41391941392,0.423798423798424,33.4211151483469
1743439861603,12:51:01.603,70,-1,1654.94505494505,0.425574425574426,33.4211151483469
1743439861623,12:51:01.623,70,-1,1597.8021978022,0.426462426462426,33.4211151483469
1743439861642,12:51:01.642,70,-1,1564.83516483516,0.432234432234432,33.4211151483469
1743439861662,12:51:01.662,70,-1,1548.71794871795,0.433566433566433,33.4211151483469
1743439861681,12:51:01.681,70,-1,1548.71794871795,0.430902430902431,33.4211151483469
1743439861701,12:51:01.701,67,-1,1535.53113553114,0.429126429126429,33.4211151483469
1743439861720,12:51:01.720,67,-1,1517.94871794872,0.427794427794428,33.4211151483469
1743439861740,12:51:01.740,67,-1,1502.5641025641,0.429126429126429,33.4211151483469
1743439861759,12:51:01.759,67,-1,1484.98168498168,0.434898434898435,33.4211151483469
1743439861779,12:51:01.779,67,-1,1455.67765567766,0.436230436230436,33.4211151483469
1743439861798,12:51:01.798,67,-1,1428.57142857143,0.433566433566433,33.4211151483469
1743439861818,12:51:01.818,67,-1,1408.05860805861,0.432234432234432,33.4211151483469
1743439861837,12:51:01.837,67,-1,1383.88278388278,0.431346431346431,33.4211151483469
1743439861857,12:51:01.857,67,-1,1367.76556776557,0.432678432678433,33.4211151483469
1743439861876,12:51:01.876,67,-1,1355.31135531136,0.435786435786436,33.4211151483469
1743439861896,12:51:01.896,67,-1,1347.25274725275,0.432234432234432,33.4211151483469
1743439861915,12:51:01.915,67,-1,1326.00732600733,0.433566433566433,33.4211151483469
1743439861935,12:51:01.935,67,-1,1301.0989010989,0.437562437562438,33.4211151483469
1743439861954,12:51:01.954,67,-1,1287.17948717949,0.438006438006438,33.4211151483469
1743439861974,12:51:01.974,67,-1,1279.12087912088,0.445110445110445,33.4211151483469
1743439861993,12:51:01.993,67,-1,1268.13186813187,0.446886446886447,33.4211151483469
1743439862013,12:51:02.013,67,-1,1257.87545787546,0.451770451770452,33.4211151483469
1743439862032,12:51:02.032,67,-1,1243.95604395604,0.448218448218448,33.4211151483469
1743439862052,12:51:02.052,67,-1,1241.02564102564,0.44999444999445,33.4211151483469
1743439862071,12:51:02.071,67,-1,1238.09523809524,0.449106449106449,33.4211151483469
1743439862091,12:51:02.091,67,-1,1227.10622710623,0.452658452658453,33.4211151483469
1743439862110,12:51:02.110,67,-1,1217.58241758242,0.445554445554445,33.4211151483469
1743439862130,12:51:02.130,67,-1,1221.97802197802,0.444666444666445,33.4211151483469
1743439862149,12:51:02.149,67,-1,1241.02564102564,0.438006438006438,33.4211151483469
1743439862169,12:51:02.169,67,-1,1294.50549450549,0.430902430902431,33.4211151483469
1743439862188,12:51:02.188,67,-1,1382.41758241758,0.425574425574426,33.4211151483469
1743439862208,12:51:02.208,67,-1,1495.9706959707,0.424242424242424,33.4211151483469
1743439862227,12:51:02.227,67,-1,1597.8021978022,0.425130425130425,33.4211151483469
1743439862247,12:51:02.247,67,-1,1675.45787545788,0.430902430902431,33.4211151483469
1743439862266,12:51:02.266,67,-1,1747.98534798535,0.442890442890443,33.4211151483469
1743439862286,12:51:02.286,67,-1,1799.2673992674,0.461094461094461,33.4361251563532
1743439862305,12:51:02.305,67,-1,1819.78021978022,0.468642468642469,33.4361251563532
1743439862325,12:51:02.325,67,-1,1824.17582417582,0.473082473082473,33.4361251563532
1743439862344,12:51:02.344,67,-1,1827.10622710623,0.475746475746476,33.4361251563532
1743439862364,12:51:02.364,67,-1,1833.69963369963,0.476634476634477,33.4361251563532
1743439862383,12:51:02.383,67,-1,1841.02564102564,0.475302475302475,33.4361251563532
1743439862403,12:51:02.403,67,-1,1827.83882783883,0.473526473526473,33.4361251563532
1743439862422,12:51:02.422,67,-1,1802.9304029304,0.473970473970474,33.4361251563532
1743439862442,12:51:02.442,67,-1,1756.77655677656,0.475746475746476,33.4361251563532
1743439862461,12:51:02.461,67,-1,1705.49450549451,0.477522477522477,33.4361251563532
1743439862481,12:51:02.481,67,-1,1653.47985347985,0.477522477522477,33.4361251563532
1743439862500,12:51:02.500,67,-1,1619.78021978022,0.475746475746476,33.4361251563532
1743439862520,12:51:02.520,67,-1,1586.08058608059,0.474414474414474,33.4361251563532
1743439862539,12:51:02.539,67,-1,1551.64835164835,0.474414474414474,33.4361251563532
1743439862559,12:51:02.559,67,-1,1521.61172161172,0.476634476634477,33.4361251563532
1743439862578,12:51:02.578,67,-1,1498.9010989011,0.477522477522477,33.4361251563532
1743439862598,12:51:02.598,67,-1,1479.85347985348,0.477078477078477,33.4361251563532
1743439862617,12:51:02.617,67,-1,1439.56043956044,0.474414474414474,33.4361251563532
1743439862637,12:51:02.637,67,-1,1410.25641025641,0.472638472638473,33.4361251563532
1743439862656,12:51:02.656,67,-1,1389.74358974359,0.473082473082473,33.4361251563532
1743439862676,12:51:02.676,67,-1,1370.69597069597,0.473082473082473,33.4361251563532
1743439862695,12:51:02.695,63,-1,1339.92673992674,0.473082473082473,33.4361251563532
1743439862715,12:51:02.715,63,-1,1323.80952380952,0.473082473082473,33.4361251563532
1743439862734,12:51:02.734,63,-1,1320.87912087912,0.470862470862471,33.4361251563532
1743439862754,12:51:02.754,63,-1,1310.62271062271,0.469086469086469,33.4361251563532
1743439862773,12:51:02.773,63,-1,1290.84249084249,0.467754467754468,33.4361251563532
1743439862793,12:51:02.793,63,-1,1267.39926739927,0.467754467754468,33.4361251563532
1743439862812,12:51:02.812,63,-1,1240.29304029304,0.467310467310467,33.4361251563532
1743439862832,12:51:02.832,63,-1,1221.24542124542,0.465978465978466,33.4361251563532
1743439862851,12:51:02.851,63,-1,1210.98901098901,0.463314463314463,33.4361251563532
1743439862871,12:51:02.871,63,-1,1212.45421245421,0.463758463758464,33.4361251563532
1743439862890,12:51:02.890,63,-1,1216.11721611722,0.464202464202464,33.4361251563532
1743439862910,12:51:02.910,63,-1,1221.24542124542,0.466422466422466,33.4361251563532
1743439862929,12:51:02.929,63,-1,1216.11721611722,0.467310467310467,33.4361251563532
1743439862949,12:51:02.949,63,-1,1202.9304029304,0.466866466866467,33.4361251563532
1743439862968,12:51:02.968,63,-1,1178.75457875458,0.465090465090465,33.4361251563532
1743439862988,12:51:02.988,63,-1,1175.82417582418,0.465090465090465,33.4361251563532
1743439863007,12:51:03.007,63,-1,1178.02197802198,0.466866466866467,33.4361251563532
1743439863027,12:51:03.027,63,-1,1174.35897435897,0.468642468642469,33.4361251563532
1743439863046,12:51:03.046,63,-1,1171.42857142857,0.469086469086469,33.4361251563532
1743439863066,12:51:03.066,63,-1,1196.336996337,0.467754467754468,33.4361251563532
1743439863085,12:51:03.085,63,-1,1261.53846153846,0.465534465534465,33.4361251563532
1743439863105,12:51:03.105,63,-1,1369.96336996337,0.465534465534465,33.4361251563532
1743439863124,12:51:03.124,63,-1,1502.5641025641,0.466866466866467,33.4361251563532
1743439863144,12:51:03.144,63,-1,1630.76923076923,0.468642468642469,33.4361251563532
1743439863163,12:51:03.163,63,-1,1733.33333333333,0.468642468642469,33.4361251563532
1743439863183,12:51:03.183,63,-1,1811.72161172161,0.467310467310467,33.4361251563532
1743439863202,12:51:03.202,63,-1,1863.00366300366,0.465534465534465,33.4361251563532
1743439863222,12:51:03.222,63,-1,1896.7032967033,0.465534465534465,33.4361251563532
1743439863241,12:51:03.241,63,-1,1904.0293040293,0.466422466422466,33.4361251563532
1743439863261,12:51:03.261,63,-1,1890.84249084249,0.468198468198468,33.4361251563532
1743439863280,12:51:03.280,63,-1,1874.72527472527,0.468198468198468,33.4361251563532
1743439863300,12:51:03.300,63,-1,1852.74725274725,0.466422466422466,33.4361251563532
1743439863319,12:51:03.319,63,-1,1827.83882783883,0.464646464646465,33.4361251563532
1743439863339,12:51:03.339,63,-1,1786.81318681319,0.465090465090465,33.4361251563532
1743439863358,12:51:03.358,63,-1,1723.07692307692,0.466422466422466,33.4361251563532
1743439863378,12:51:03.378,63,-1,1654.21245421245,0.467310467310467,33.4361251563532
1743439863397,12:51:03.397,63,-1,1607.32600732601,0.466866466866467,33.4361251563532
1743439863417,12:51:03.417,63,-1,1575.82417582418,0.464202464202464,33.4361251563532
1743439863436,12:51:03.436,63,-1,1556.04395604396,0.461982461982462,33.4361251563532
1743439863456,12:51:03.456,63,-1,1526.73992673993,0.461982461982462,33.4361251563532
1743439863475,12:51:03.475,63,-1,1492.30769230769,0.463758463758464,33.4361251563532
1743439863495,12:51:03.495,63,-1,1457.87545787546,0.464646464646465,33.4361251563532
1743439863514,12:51:03.514,63,-1,1430.03663003663,0.464202464202464,33.4361251563532
1743439863534,12:51:03.534,63,-1,1410.25641025641,0.462426462426462,33.4361251563532
1743439863553,12:51:03.553,63,-1,1391.20879120879,0.461094461094461,33.4361251563532
1743439863573,12:51:03.573,63,-1,1366.30036630037,0.461982461982462,33.4361251563532
1743439863592,12:51:03.592,63,-1,1343.58974358974,0.464202464202464,33.4361251563532
1743439863612,12:51:03.612,63,-1,1310.62271062271,0.465090465090465,33.4361251563532
1743439863631,12:51:03.631,63,-1,1287.91208791209,0.464646464646465,33.4361251563532
1743439863651,12:51:03.651,63,-1,1275.45787545788,0.462870462870463,33.4361251563532
1743439863670,12:51:03.670,63,-1,1260.07326007326,0.461094461094461,33.4361251563532
1743439863690,12:51:03.690,60,-1,1243.22344322344,0.461094461094461,33.4361251563532
1743439863709,12:51:03.709,60,-1,1230.03663003663,0.463314463314463,33.4361251563532
1743439863729,12:51:03.729,60,-1,1221.24542124542,0.463758463758464,33.4361251563532
1743439863748,12:51:03.748,60,-1,1213.91941391941,0.463314463314463,33.4361251563532
1743439863768,12:51:03.768,60,-1,1208.79120879121,0.461538461538461,33.4361251563532
1743439863787,12:51:03.787,60,-1,1197.0695970696,0.461094461094461,33.4361251563532
1743439863807,12:51:03.807,60,-1,1175.82417582418,0.461538461538461,33.4361251563532
1743439863826,12:51:03.826,60,-1,1161.17216117216,0.463758463758464,33.4361251563532
1743439863846,12:51:03.846,60,-1,1148.71794871795,0.463758463758464,33.4361251563532
1743439863865,12:51:03.865,60,-1,1153.11355311355,0.462426462426462,33.4361251563532
1743439863885,12:51:03.885,60,-1,1169.96336996337,0.460650460650461,33.4361251563532
1743439863904,12:51:03.904,60,-1,1173.62637362637,0.46020646020646,33.4361251563532
1743439863924,12:51:03.924,60,-1,1167.03296703297,0.460650460650461,33.4361251563532
1743439863943,12:51:03.943,60,-1,1165.56776556777,0.462426462426462,33.4361251563532
1743439863963,12:51:03.963,60,-1,1149.45054945055,0.462870462870463,33.4361251563532
1743439863982,12:51:03.982,60,-1,1119.41391941392,0.461538461538461,33.4361251563532
1743439864002,12:51:04.002,60,-1,1101.8315018315,0.458874458874459,33.4361251563532
1743439864021,12:51:04.021,60,-1,1119.41391941392,0.458430458430458,33.4361251563532
1743439864041,12:51:04.041,60,-1,1171.42857142857,0.457986457986458,33.4361251563532
1743439864060,12:51:04.060,60,-1,1257.87545787546,0.45976245976246,33.4361251563532
1743439864080,12:51:04.080,60,-1,1389.01098901099,0.45976245976246,33.4361251563532
1743439864099,12:51:04.099,60,-1,1515.01831501831,0.458430458430458,33.4361251563532
1743439864119,12:51:04.119,60,-1,1617.58241758242,0.456654456654457,33.4361251563532
1743439864138,12:51:04.138,60,-1,1695.9706959707,0.456654456654457,33.4361251563532
1743439864158,12:51:04.158,60,-1,1752.38095238095,0.457542457542458,33.4361251563532
1743439864177,12:51:04.177,60,-1,1783.15018315018,0.458874458874459,33.4361251563532
1743439864197,12:51:04.197,60,-1,1797.0695970696,0.459318459318459,33.4361251563532
1743439864216,12:51:04.216,60,-1,1800.7326007326,0.457098457098457,33.4361251563532
1743439864236,12:51:04.236,60,-1,1796.336996337,0.455766455766456,33.4361251563532
1743439864255,12:51:04.255,60,-1,1786.81318681319,0.456210456210456,33.4361251563532
1743439864275,12:51:04.275,60,-1,1775.09157509157,0.457986457986458,33.4361251563532
1743439864294,12:51:04.294,60,-1,1742.85714285714,0.45976245976246,33.4361251563532
1743439864314,12:51:04.314,60,-1,1688.64468864469,0.45976245976246,33.4361251563532
1743439864333,12:51:04.333,60,-1,1631.50183150183,0.458430458430458,33.4361251563532
1743439864353,12:51:04.353,60,-1,1576.55677655678,0.456654456654457,33.4361251563532
1743439864372,12:51:04.372,60,-1,1523.80952380952,0.457098457098457,33.4361251563532
1743439864392,12:51:04.392,60,-1,1484.24908424908,0.458874458874459,33.4361251563532
1743439864411,12:51:04.411,60,-1,1463.73626373626,0.45976245976246,33.4361251563532
1743439864431,12:51:04.431,60,-1,1452.01465201465,0.459318459318459,33.4361251563532
1743439864450,12:51:04.450,60,-1,1438.09523809524,0.457098457098457,33.4361251563532
1743439864470,12:51:04.470,60,-1,1410.25641025641,0.455766455766456,33.4361251563532
1743439864489,12:51:04.489,60,-1,1387.54578754579,0.456654456654457,33.4361251563532
1743439864509,12:51:04.509,60,-1,1361.90476190476,0.458430458430458,33.4361251563532
1743439864528,12:51:04.528,60,-1,1335.53113553114,0.458430458430458,33.4361251563532
1743439864548,12:51:04.548,60,-1,1309.15750915751,0.457098457098457,33.4361251563532
1743439864567,12:51:04.567,60,-1,1282.05128205128,0.454878454878455,33.4361251563532
1743439864587,12:51:04.587,60,-1,1267.39926739927,0.453990453990454,33.4361251563532
1743439864606,12:51:04.606,60,-1,1256.41025641026,0.453990453990454,33.4361251563532
1743439864626,12:51:04.626,60,-1,1241.75824175824,0.455766455766456,33.4361251563532
1743439864645,12:51:04.645,60,-1,1230.76923076923,0.456210456210456,33.4361251563532
1743439864665,12:51:04.665,60,-1,1234.43223443223,0.455322455322455,33.4361251563532
1743439864684,12:51:04.684,60,-1,1230.03663003663,0.453102453102453,33.4361251563532
1743439864704,12:51:04.704,60,-1,1201.4652014652,0.452658452658453,33.4361251563532
1743439864723,12:51:04.723,60,-1,1197.8021978022,0.453990453990454,33.4361251563532
1743439864743,12:51:04.743,60,-1,1205.12820512821,0.455766455766456,33.4361251563532
1743439864762,12:51:04.762,60,-1,1204.3956043956,0.457098457098457,33.4361251563532
1743439864782,12:51:04.782,60,-1,1200.7326007326,0.457098457098457,33.4361251563532
1743439864801,12:51:04.801,60,-1,1189.01098901099,0.454878454878455,33.4361251563532
1743439864821,12:51:04.821,60,-1,1182.41758241758,0.453990453990454,33.4361251563532
1743439864840,12:51:04.840,60,-1,1171.42857142857,0.454878454878455,33.4361251563532
1743439864860,12:51:04.860,60,-1,1160.43956043956,0.456210456210456,33.4361251563532
1743439864879,12:51:04.879,60,-1,1143.58974358974,0.456210456210456,33.4361251563532
1743439864899,12:51:04.899,60,-1,1153.11355311355,0.455322455322455,33.4361251563532
1743439864918,12:51:04.918,60,-1,1215.38461538462,0.453102453102453,33.4361251563532
1743439864938,12:51:04.938,60,-1,1306.22710622711,0.451326451326451,33.4361251563532
1743439864957,12:51:04.957,60,-1,1408.79120879121,0.451770451770452,33.4361251563532
1743439864977,12:51:04.977,60,-1,1515.01831501831,0.453990453990454,33.4361251563532
1743439864996,12:51:04.996,60,-1,1609.52380952381,0.455322455322455,33.4361251563532
1743439865016,12:51:05.016,60,-1,1665.93406593407,0.454434454434454,33.4361251563532
1743439865035,12:51:05.035,60,-1,1684.24908424908,0.451770451770452,33.4361251563532
1743439865055,12:51:05.055,60,-1,1683.51648351648,0.450882450882451,33.4361251563532
1743439865074,12:51:05.074,60,-1,1676.92307692308,0.452214452214452,33.4361251563532
1743439865094,12:51:05.094,60,-1,1678.38827838828,0.454878454878455,33.4361251563532
1743439865113,12:51:05.113,60,-1,1665.93406593407,0.454434454434454,33.4361251563532
1743439865133,12:51:05.133,60,-1,1641.75824175824,0.453990453990454,33.4361251563532
1743439865152,12:51:05.152,60,-1,1602.9304029304,0.452214452214452,33.4361251563532
1743439865172,12:51:05.172,60,-1,1562.63736263736,0.452214452214452,33.4361251563532
1743439865191,12:51:05.191,60,-1,1512.08791208791,0.453102453102453,33.4361251563532
1743439865211,12:51:05.211,60,-1,1472.52747252747,0.453990453990454,33.4361251563532
1743439865230,12:51:05.230,60,-1,1432.96703296703,0.454434454434454,33.4361251563532
1743439865250,12:51:05.250,60,-1,1402.1978021978,0.453546453546453,33.4361251563532
1743439865269,12:51:05.269,60,-1,1397.0695970696,0.452214452214452,33.4411284807138
1743439865289,12:51:05.289,60,-1,1389.01098901099,0.451770451770452,33.4411284807138
1743439865308,12:51:05.308,60,-1,1380.95238095238,0.453546453546453,33.4411284807138
1743439865328,12:51:05.328,60,-1,1371.42857142857,0.454878454878455,33.4411284807138
1743439865347,12:51:05.347,60,-1,1361.90476190476,0.454878454878455,33.4411284807138
1743439865367,12:51:05.367,60,-1,1356.77655677656,0.452214452214452,33.4411284807138
1743439865386,12:51:05.386,60,-1,1334.79853479853,0.452214452214452,33.4411284807138
1743439865406,12:51:05.406,68,-1,1306.95970695971,0.452658452658453,33.4411284807138
1743439865425,12:51:05.425,68,-1,1283.51648351648,0.455322455322455,33.4411284807138
1743439865445,12:51:05.445,68,-1,1279.85347985348,0.456210456210456,33.4411284807138
1743439865464,12:51:05.464,68,-1,1266.66666666667,0.456210456210456,33.4411284807138
1743439865484,12:51:05.484,68,-1,1243.22344322344,0.454434454434454,33.4411284807138
1743439865503,12:51:05.503,68,-1,1224.17582417582,0.455322455322455,33.4411284807138
1743439865523,12:51:05.523,68,-1,1214.65201465201,0.456210456210456,33.4411284807138
1743439865542,12:51:05.542,68,-1,1200,0.458874458874459,33.4411284807138
1743439865562,12:51:05.562,68,-1,1181.68498168498,0.46020646020646,33.4411284807138
1743439865581,12:51:05.581,68,-1,1171.42857142857,0.460650460650461,33.4411284807138
1743439865601,12:51:05.601,68,-1,1163.36996336996,0.458874458874459,33.4411284807138
1743439865620,12:51:05.620,68,-1,1164.83516483516,0.458430458430458,33.4411284807138
1743439865640,12:51:05.640,68,-1,1157.50915750916,0.459318459318459,33.4411284807138
1743439865659,12:51:05.659,68,-1,1149.45054945055,0.461982461982462,33.4411284807138
1743439865679,12:51:05.679,68,-1,1136.99633699634,0.462426462426462,33.4411284807138
1743439865698,12:51:05.698,68,-1,1127.47252747253,0.461982461982462,33.4411284807138
1743439865718,12:51:05.718,68,-1,1139.92673992674,0.45976245976246,33.4411284807138
1743439865737,12:51:05.737,68,-1,1191.20879120879,0.459318459318459,33.4411284807138
1743439865757,12:51:05.757,68,-1,1268.86446886447,0.46020646020646,33.4411284807138
1743439865776,12:51:05.776,68,-1,1369.96336996337,0.461982461982462,33.4411284807138
1743439865796,12:51:05.796,68,-1,1482.78388278388,0.462426462426462,33.4411284807138
1743439865815,12:51:05.815,68,-1,1577.28937728938,0.461538461538461,33.4411284807138
1743439865835,12:51:05.835,68,-1,1633.69963369963,0.459318459318459,33.4411284807138
1743439865854,12:51:05.854,68,-1,1671.79487179487,0.458874458874459,33.4411284807138
1743439865874,12:51:05.874,68,-1,1681.31868131868,0.45976245976246,33.4411284807138
1743439865893,12:51:05.893,68,-1,1667.39926739927,0.461094461094461,33.4411284807138
1743439865913,12:51:05.913,68,-1,1662.27106227106,0.461538461538461,33.4411284807138
1743439865932,12:51:05.932,68,-1,1652.01465201465,0.45976245976246,33.4411284807138
1743439865952,12:51:05.952,68,-1,1647.61904761905,0.456210456210456,33.4411284807138
1743439865971,12:51:05.971,68,-1,1619.78021978022,0.453102453102453,33.4411284807138
1743439865991,12:51:05.991,68,-1,1582.41758241758,0.453990453990454,33.4411284807138
1743439866010,12:51:06.010,68,-1,1528.20512820513,0.455322455322455,33.4411284807138
1743439866030,12:51:06.030,68,-1,1488.64468864469,0.453990453990454,33.4411284807138
1743439866049,12:51:06.049,68,-1,1449.81684981685,0.45043845043845,33.4411284807138
1743439866069,12:51:06.069,68,-1,1423.44322344322,0.448662448662449,33.4411284807138
1743439866088,12:51:06.088,68,-1,1397.0695970696,0.448662448662449,33.4411284807138
1743439866108,12:51:06.108,68,-1,1381.68498168498,0.455322455322455,33.4411284807138
1743439866127,12:51:06.127,68,-1,1383.88278388278,0.453102453102453,33.4411284807138
1743439866147,12:51:06.147,68,-1,1378.02197802198,0.449550449550449,33.4411284807138
1743439866166,12:51:06.166,68,-1,1365.56776556777,0.445998445998446,33.4411284807138
1743439866186,12:51:06.186,68,-1,1336.26373626374,0.448662448662449,33.4411284807138
1743439866205,12:51:06.205,68,-1,1323.07692307692,0.451770451770452,33.4411284807138
1743439866225,12:51:06.225,68,-1,1315.01831501831,0.453102453102453,33.4411284807138
1743439866244,12:51:06.244,68,-1,1296.7032967033,0.455766455766456,33.4411284807138
1743439866264,12:51:06.264,72,-1,1270.32967032967,0.457542457542458,33.4511351119727
1743439866283,12:51:06.283,72,-1,1231.50183150183,0.455766455766456,33.4511351119727
1743439866303,12:51:06.303,72,-1,1207.32600732601,0.455322455322455,33.4511351119727
1743439866322,12:51:06.322,72,-1,1203.663003663,0.457098457098457,33.4511351119727
1743439866342,12:51:06.342,72,-1,1197.8021978022,0.45976245976246,33.4511351119727
1743439866361,12:51:06.361,72,-1,1186.81318681319,0.46020646020646,33.4511351119727
1743439866381,12:51:06.381,72,-1,1165.56776556777,0.459318459318459,33.4511351119727
1743439866400,12:51:06.400,72,-1,1153.11355311355,0.457098457098457,33.4511351119727
1743439866420,12:51:06.420,72,-1,1156.77655677656,0.456210456210456,33.4511351119727
1743439866439,12:51:06.439,72,-1,1162.63736263736,0.456210456210456,33.4511351119727
1743439866459,12:51:06.459,72,-1,1168.49816849817,0.457986457986458,33.4511351119727
1743439866478,12:51:06.478,72,-1,1172.16117216117,0.458430458430458,33.4511351119727
1743439866498,12:51:06.498,72,-1,1172.16117216117,0.457542457542458,33.4511351119727
1743439866517,12:51:06.517,72,-1,1163.36996336996,0.454878454878455,33.4511351119727
1743439866537,12:51:06.537,72,-1,1155.31135531136,0.453102453102453,33.4511351119727
1743439866556,12:51:06.556,72,-1,1160.43956043956,0.451770451770452,33.4511351119727
1743439866576,12:51:06.576,72,-1,1199.2673992674,0.452214452214452,33.4511351119727
1743439866595,12:51:06.595,72,-1,1278.38827838828,0.452658452658453,33.4511351119727
1743439866615,12:51:06.615,72,-1,1364.83516483516,0.451326451326451,33.4511351119727
1743439866634,12:51:06.634,72,-1,1446.88644688645,0.449106449106449,33.4511351119727
1743439866654,12:51:06.654,72,-1,1517.94871794872,0.448218448218448,33.4511351119727
1743439866673,12:51:06.673,72,-1,1576.55677655678,0.449106449106449,33.4511351119727
1743439866693,12:51:06.693,72,-1,1618.31501831502,0.451326451326451,33.4511351119727
1743439866712,12:51:06.712,72,-1,1664.46886446886,0.451770451770452,33.4511351119727
1743439866732,12:51:06.732,72,-1,1704.0293040293,0.450882450882451,33.4511351119727
1743439866751,12:51:06.751,72,-1,1719.41391941392,0.449550449550449,33.4511351119727
1743439866771,12:51:06.771,72,-1,1711.35531135531,0.448662448662449,33.4511351119727
1743439866790,12:51:06.790,72,-1,1693.77289377289,0.449550449550449,33.4511351119727
1743439866810,12:51:06.810,72,-1,1670.32967032967,0.451770451770452,33.4511351119727
1743439866829,12:51:06.829,72,-1,1632.23443223443,0.451770451770452,33.4511351119727
1743439866849,12:51:06.849,72,-1,1569.96336996337,0.450882450882451,33.4511351119727
1743439866868,12:51:06.868,72,-1,1505.49450549451,0.449106449106449,33.4511351119727
1743439866888,12:51:06.888,72,-1,1464.46886446886,0.448662448662449,33.4511351119727
1743439866907,12:51:06.907,72,-1,1434.43223443223,0.44999444999445,33.4511351119727
1743439866927,12:51:06.927,72,-1,1408.05860805861,0.451770451770452,33.4511351119727
1743439866946,12:51:06.946,72,-1,1383.88278388278,0.452214452214452,33.4511351119727
1743439866966,12:51:06.966,72,-1,1367.76556776557,0.450882450882451,33.4511351119727
1743439866985,12:51:06.985,72,-1,1372.16117216117,0.449550449550449,33.4511351119727
1743439867005,12:51:07.005,72,-1,1356.77655677656,0.449550449550449,33.4511351119727
1743439867024,12:51:07.024,72,-1,1315.75091575092,0.450882450882451,33.4511351119727
1743439867044,12:51:07.044,72,-1,1273.26007326007,0.453102453102453,33.4511351119727
1743439867063,12:51:07.063,72,-1,1249.81684981685,0.453102453102453,33.4511351119727
1743439867083,12:51:07.083,72,-1,1225.64102564103,0.451770451770452,33.4511351119727
1743439867102,12:51:07.102,72,-1,1211.72161172161,0.449550449550449,33.4511351119727
1743439867122,12:51:07.122,72,-1,1198.5347985348,0.449550449550449,33.4511351119727
1743439867141,12:51:07.141,72,-1,1198.5347985348,0.450882450882451,33.4511351119727
1743439867161,12:51:07.161,70,-1,1198.5347985348,0.45043845043845,33.4511351119727
1743439867180,12:51:07.180,70,-1,1200.7326007326,0.447774447774448,33.4511351119727
1743439867200,12:51:07.200,70,-1,1206.59340659341,0.444222444222444,33.4511351119727
1743439867219,12:51:07.219,70,-1,1200,0.442002442002442,33.4511351119727
1743439867239,12:51:07.239,70,-1,1186.08058608059,0.441558441558441,33.4511351119727
1743439867258,12:51:07.258,70,-1,1167.76556776557,0.443334443334443,33.4461317992536
1743439867278,12:51:07.278,70,-1,1153.11355311355,0.444222444222444,33.4461317992536
1743439867297,12:51:07.297,70,-1,1150.91575091575,0.443334443334443,33.4461317992536
1743439867317,12:51:07.317,70,-1,1151.64835164835,0.441114441114441,33.4461317992536
1743439867336,12:51:07.336,70,-1,1161.90476190476,0.439338439338439,33.4461317992536
1743439867356,12:51:07.356,70,-1,1161.90476190476,0.441114441114441,33.4461317992536
1743439867375,12:51:07.375,70,-1,1163.36996336996,0.443334443334443,33.4461317992536
1743439867395,12:51:07.395,70,-1,1153.84615384615,0.446442446442446,33.4461317992536
1743439867414,12:51:07.414,70,-1,1136.26373626374,0.447774447774448,33.4461317992536
1743439867434,12:51:07.434,70,-1,1135.53113553114,0.446886446886447,33.4461317992536
1743439867453,12:51:07.453,70,-1,1167.03296703297,0.447330447330447,33.4461317992536
1743439867473,12:51:07.473,70,-1,1220.51282051282,0.448218448218448,33.4461317992536
1743439867492,12:51:07.492,70,-1,1304.0293040293,0.450882450882451,33.4461317992536
1743439867512,12:51:07.512,70,-1,1408.79120879121,0.450882450882451,33.4461317992536
1743439867531,12:51:07.531,70,-1,1501.8315018315,0.450882450882451,33.4461317992536
1743439867551,12:51:07.551,70,-1,1559.70695970696,0.448662448662449,33.4461317992536
1743439867570,12:51:07.570,70,-1,1620.51282051282,0.447774447774448,33.4461317992536
1743439867590,12:51:07.590,70,-1,1660.80586080586,0.448218448218448,33.4461317992536
1743439867609,12:51:07.609,70,-1,1665.93406593407,0.45043845043845,33.4461317992536
1743439867629,12:51:07.629,70,-1,1653.47985347985,0.451326451326451,33.4461317992536
1743439867648,12:51:07.648,70,-1,1635.16483516484,0.44999444999445,33.4461317992536
1743439867668,12:51:07.668,70,-1,1634.43223443223,0.448218448218448,33.4461317992536
1743439867687,12:51:07.687,70,-1,1636.63003663004,0.448218448218448,33.4461317992536
1743439867707,12:51:07.707,70,-1,1612.45421245421,0.448662448662449,33.4461317992536
1743439867726,12:51:07.726,70,-1,1571.42857142857,0.45043845043845,33.4461317992536
1743439867746,12:51:07.746,70,-1,1523.07692307692,0.44999444999445,33.4461317992536
1743439867765,12:51:07.765,70,-1,1464.46886446886,0.448662448662449,33.4461317992536
1743439867785,12:51:07.785,70,-1,1419.78021978022,0.446442446442446,33.4461317992536
1743439867804,12:51:07.804,70,-1,1387.54578754579,0.445998445998446,33.4461317992536
1743439867824,12:51:07.824,70,-1,1367.76556776557,0.446442446442446,33.4461317992536
1743439867843,12:51:07.843,70,-1,1372.89377289377,0.448218448218448,33.4461317992536
1743439867863,12:51:07.863,70,-1,1380.95238095238,0.448218448218448,33.4461317992536
1743439867882,12:51:07.882,70,-1,1356.77655677656,0.446442446442446,33.4461317992536
1743439867902,12:51:07.902,70,-1,1335.53113553114,0.444222444222444,33.4461317992536
1743439867921,12:51:07.921,70,-1,1320.14652014652,0.444222444222444,33.4461317992536
1743439867941,12:51:07.941,70,-1,1288.64468864469,0.446442446442446,33.4461317992536
1743439867960,12:51:07.960,70,-1,1257.87545787546,0.448218448218448,33.4461317992536
1743439867980,12:51:07.980,70,-1,1230.03663003663,0.448218448218448,33.4461317992536
1743439867999,12:51:07.999,70,-1,1203.663003663,0.446886446886447,33.4461317992536
1743439868019,12:51:08.019,70,-1,1178.02197802198,0.445554445554445,33.4461317992536
