RawTimestamp,LocalTime,HeartRate,PPG,GSR,Temperature
1743284708389,17:45:08.389,-1,0,3.8,26.4608428180218
1743284708409,17:45:08.409,-1,0,3.8,26.4608428180218
1743284708429,17:45:08.428,-1,0,1.03876223279208,26.4608428180218
1743284708448,17:45:08.448,-1,0,1.03876223279208,26.4608428180218
1743284708468,17:45:08.467,-1,0,1.03876223279208,26.4608428180218
1743284708487,17:45:08.487,-1,0,1.03876223279208,26.4608428180218
1743284708507,17:45:08.506,-1,0,1.03876223279208,26.4608428180218
1743284708526,17:45:08.526,-1,0,1.01849370142053,26.4608428180218
1743284708546,17:45:08.546,-1,0,1.01849370142053,26.4608428180218
1743284708565,17:45:08.565,-1,0,1.01849370142053,26.4608428180218
1743284708585,17:45:08.585,-1,0,1.01849370142053,26.4608428180218
1743284708604,17:45:08.604,-1,0,1.01849370142053,26.4608428180218
1743284708624,17:45:08.624,-1,0,1.01758241758242,26.4608428180218
1743284708643,17:45:08.643,-1,0,1.01758241758242,26.4608428180218
1743284708663,17:45:08.663,-1,0,1.01758241758242,26.4608428180218
1743284708682,17:45:08.682,-1,0,1.01758241758242,26.4608428180218
1743284708702,17:45:08.702,-1,0,1.01758241758242,26.4608428180218
1743284708721,17:45:08.721,-1,0,1.01209901209901,26.4608428180218
1743284708741,17:45:08.741,-1,0,1.01209901209901,26.4608428180218
1743284708760,17:45:08.760,-1,0,1.01209901209901,26.4608428180218
1743284708780,17:45:08.780,-1,0,1.01209901209901,26.4608428180218
1743284708799,17:45:08.799,-1,0,1.01165501165501,26.4608428180218
1743284708819,17:45:08.819,-1,0,1.01121101121101,26.4608428180218
1743284708838,17:45:08.838,-1,0,1.01076701076701,26.4608428180218
1743284708858,17:45:08.858,-1,0,1.01076701076701,26.4608428180218
1743284708877,17:45:08.877,-1,0,1.01076701076701,26.4608428180218
1743284708897,17:45:08.897,-1,0,1.01032301032301,26.4608428180218
1743284708916,17:45:08.916,-1,0,1.00987900987901,26.4608428180218
1743284708936,17:45:08.936,-1,0,1.00943500943501,26.4608428180218
1743284708955,17:45:08.955,-1,0,1.00943500943501,26.4608428180218
1743284708975,17:45:08.975,-1,0,1.00943500943501,26.4608428180218
1743284708994,17:45:08.994,-1,0,1.00899100899101,26.4608428180218
1743284709014,17:45:09.014,-1,0,1.00854700854701,26.4608428180218
1743284709033,17:45:09.033,-1,0,1.00810300810301,26.4608428180218
1743284709053,17:45:09.053,-1,0,1.00765900765901,26.4608428180218
1743284709072,17:45:09.072,-1,0,1.00765900765901,26.4608428180218
1743284709092,17:45:09.092,-1,0,1.00765900765901,26.4608428180218
1743284709111,17:45:09.111,-1,0,1.00721500721501,26.4608428180218
1743284709131,17:45:09.131,-1,0,1.00677100677101,26.4608428180218
1743284709150,17:45:09.150,-1,0,1.00677100677101,26.4608428180218
1743284709170,17:45:09.170,-1,0,1.00632700632701,26.4608428180218
1743284709189,17:45:09.189,-1,0,1.00632700632701,26.4608428180218
1743284709209,17:45:09.209,-1,0,1.00588300588301,26.4608428180218
1743284709228,17:45:09.228,-1,0,1.00543900543901,26.4608428180218
1743284709248,17:45:09.248,-1,0,1.004995004995,26.4608428180218
1743284709267,17:45:09.267,-1,0,1.004551004551,26.4608428180218
1743284709287,17:45:09.287,-1,0,1.004551004551,26.4608428180218
1743284709306,17:45:09.306,-1,0,1.004107004107,33.776337953168
1743284709326,17:45:09.326,-1,0,1.004107004107,33.776337953168
1743284709345,17:45:09.345,-1,0,1.004107004107,33.776337953168
1743284709365,17:45:09.365,-1,0,1.003219003219,33.776337953168
1743284709384,17:45:09.384,-1,0,1.002775002775,33.776337953168
1743284709404,17:45:09.404,-1,0,1.002775002775,33.776337953168
1743284709423,17:45:09.423,-1,0,1.002775002775,33.776337953168
1743284709443,17:45:09.443,-1,0,1.002775002775,33.776337953168
1743284709462,17:45:09.462,-1,0,1.002331002331,33.776337953168
1743284709482,17:45:09.482,-1,0,1.001887001887,33.776337953168
1743284709501,17:45:09.501,-1,0,1.001887001887,33.776337953168
1743284709521,17:45:09.521,-1,0,1.001887001887,33.776337953168
1743284709540,17:45:09.540,-1,0,1.001887001887,33.776337953168
1743284709560,17:45:09.560,-1,0,1.001443001443,33.776337953168
1743284709579,17:45:09.579,-1,293.772893772894,1.000999000999,33.776337953168
1743284709599,17:45:09.599,-1,652.014652014652,1.000555000555,33.776337953168
1743284709618,17:45:09.618,-1,907.692307692308,1.000111000111,33.776337953168
1743284709638,17:45:09.638,-1,1069.59706959707,0.999666999667,33.776337953168
1743284709657,17:45:09.657,-1,1155.31135531136,0.999666999667,33.776337953168
1743284709677,17:45:09.677,-1,1183.88278388278,0.999222999222999,33.776337953168
1743284709696,17:45:09.696,-1,1187.54578754579,0.999222999222999,33.776337953168
1743284709716,17:45:09.716,-1,1175.09157509158,0.998778998778999,33.776337953168
1743284709735,17:45:09.735,-1,1151.64835164835,0.998334998334998,33.776337953168
1743284709755,17:45:09.755,-1,1127.47252747253,0.998334998334998,33.776337953168
1743284709774,17:45:09.774,-1,1102.5641025641,0.998334998334998,33.776337953168
1743284709794,17:45:09.794,-1,1085.71428571429,0.997890997890998,33.776337953168
1743284709813,17:45:09.813,-1,1084.24908424908,0.997890997890998,33.776337953168
1743284709833,17:45:09.833,-1,1059.34065934066,0.997446997446997,33.776337953168
1743284709852,17:45:09.852,-1,1046.15384615385,0.997002997002997,33.776337953168
1743284709872,17:45:09.872,-1,1050.54945054945,0.997002997002997,33.776337953168
1743284709891,17:45:09.891,-1,1060.07326007326,0.997002997002997,33.776337953168
1743284709911,17:45:09.911,-1,1052.01465201465,0.996558996558997,33.776337953168
1743284709930,17:45:09.930,-1,1050.54945054945,0.996558996558997,33.776337953168
1743284709950,17:45:09.950,-1,1054.21245421245,0.996114996114996,33.776337953168
1743284709969,17:45:09.969,-1,1055.67765567766,0.996114996114996,33.776337953168
1743284709989,17:45:09.989,-1,1049.81684981685,0.996114996114996,33.776337953168
1743284710008,17:45:10.008,-1,1038.82783882784,0.996114996114996,33.776337953168
1743284710028,17:45:10.028,-1,1041.02564102564,0.995670995670996,33.776337953168
1743284710047,17:45:10.047,-1,1057.14285714286,0.995670995670996,33.776337953168
1743284710067,17:45:10.067,-1,1095.2380952381,0.995226995226995,33.776337953168
1743284710086,17:45:10.086,-1,1159.70695970696,0.995226995226995,33.776337953168
1743284710106,17:45:10.106,-1,1240.29304029304,0.994782994782995,33.776337953168
1743284710125,17:45:10.125,-1,1329.67032967033,0.994338994338994,33.776337953168
1743284710145,17:45:10.145,-1,1413.18681318681,0.994338994338994,33.776337953168
1743284710164,17:45:10.164,-1,1476.92307692308,0.993894993894994,33.776337953168
1743284710184,17:45:10.184,-1,1511.35531135531,0.993894993894994,33.776337953168
1743284710203,17:45:10.203,-1,1540.65934065934,0.993894993894994,33.776337953168
1743284710223,17:45:10.223,-1,1560.43956043956,0.994338994338994,33.776337953168
1743284710242,17:45:10.242,-1,1586.08058608059,0.993450993450993,33.776337953168
1743284710262,17:45:10.262,-1,1612.45421245421,0.993006993006993,33.776337953168
1743284710281,17:45:10.281,-1,1618.31501831502,0.992562992562993,33.776337953168
1743284710301,17:45:10.301,-1,1609.52380952381,0.992562992562993,33.7863438044442
1743284710320,17:45:10.320,-1,1582.41758241758,0.992562992562993,33.7863438044442
1743284710340,17:45:10.340,-1,1527.47252747253,0.992562992562993,33.7863438044442
1743284710359,17:45:10.359,-1,1451.28205128205,0.992118992118992,33.7863438044442
1743284710379,17:45:10.379,-1,1401.4652014652,0.992118992118992,33.7863438044442
1743284710398,17:45:10.398,-1,1372.16117216117,0.991674991674992,33.7863438044442
1743284710418,17:45:10.418,-1,1347.98534798535,0.991674991674992,33.7863438044442
1743284710437,17:45:10.437,-1,1327.47252747253,0.991674991674992,33.7863438044442
1743284710457,17:45:10.457,-1,1312.08791208791,0.991674991674992,33.7863438044442
1743284710476,17:45:10.476,-1,1301.8315018315,0.991674991674992,33.7863438044442
1743284710496,17:45:10.496,-1,1285.71428571429,0.991230991230991,33.7863438044442
1743284710515,17:45:10.515,-1,1265.20146520147,0.990786990786991,33.7863438044442
1743284710535,17:45:10.535,-1,1250.54945054945,0.990786990786991,33.7863438044442
1743284710554,17:45:10.554,-1,1243.22344322344,0.990786990786991,33.7863438044442
1743284710574,17:45:10.574,-1,1235.16483516484,0.990786990786991,33.7863438044442
1743284710593,17:45:10.593,-1,1222.71062271062,0.99034299034299,33.7863438044442
1743284710613,17:45:10.613,-1,1200.7326007326,0.99034299034299,33.7863438044442
1743284710632,17:45:10.632,-1,1174.35897435897,0.98989898989899,33.7863438044442
1743284710652,17:45:10.652,-1,1142.12454212454,0.989454989454989,33.7863438044442
1743284710671,17:45:10.671,-1,1127.47252747253,0.989454989454989,33.7863438044442
1743284710691,17:45:10.691,-1,1128.20512820513,0.989454989454989,33.7863438044442
1743284710710,17:45:10.710,-1,1139.19413919414,0.989454989454989,33.7863438044442
1743284710730,17:45:10.730,-1,1140.65934065934,0.989010989010989,33.7863438044442
1743284710749,17:45:10.749,-1,1127.47252747253,0.989010989010989,33.7863438044442
1743284710769,17:45:10.769,-1,1137.72893772894,0.988566988566989,33.7863438044442
1743284710788,17:45:10.788,-1,1150.18315018315,0.988566988566989,33.7863438044442
1743284710808,17:45:10.808,-1,1148.71794871795,0.988566988566989,33.7863438044442
1743284710827,17:45:10.827,-1,1141.39194139194,0.988122988122988,33.7863438044442
1743284710847,17:45:10.847,-1,1131.86813186813,0.987678987678988,33.7863438044442
1743284710866,17:45:10.866,-1,1123.07692307692,0.987678987678988,33.7863438044442
1743284710886,17:45:10.886,-1,1120.87912087912,0.987234987234987,33.7863438044442
1743284710905,17:45:10.905,-1,1130.40293040293,0.987234987234987,33.7863438044442
1743284710925,17:45:10.925,-1,1168.49816849817,0.987234987234987,33.7863438044442
1743284710944,17:45:10.944,-1,1244.68864468864,0.986790986790987,33.7863438044442
1743284710964,17:45:10.964,-1,1334.79853479853,0.986346986346986,33.7863438044442
1743284710983,17:45:10.983,-1,1419.04761904762,0.986346986346986,33.7863438044442
1743284711003,17:45:11.003,-1,1495.9706959707,0.985902985902986,33.7863438044442
1743284711022,17:45:11.022,-1,1570.69597069597,0.985458985458985,33.7863438044442
1743284711042,17:45:11.042,-1,1627.10622710623,0.985902985902986,33.7863438044442
1743284711061,17:45:11.061,-1,1649.08424908425,0.985458985458985,33.7863438044442
1743284711081,17:45:11.081,-1,1657.87545787546,0.985014985014985,33.7863438044442
1743284711100,17:45:11.100,-1,1671.06227106227,0.984570984570985,33.7863438044442
1743284711120,17:45:11.120,-1,1687.91208791209,0.984126984126984,33.7863438044442
1743284711139,17:45:11.139,-1,1679.12087912088,0.984126984126984,33.7863438044442
1743284711159,17:45:11.159,-1,1645.42124542125,0.983682983682984,33.7863438044442
1743284711178,17:45:11.178,-1,1584.61538461538,0.983682983682984,33.7863438044442
1743284711198,17:45:11.198,-1,1520.87912087912,0.982794982794982,33.7863438044442
1743284711217,17:45:11.217,-1,1474.72527472527,0.982794982794982,33.7863438044442
1743284711237,17:45:11.237,-1,1453.47985347985,0.982350982350982,33.7863438044442
1743284711256,17:45:11.256,-1,1435.89743589744,0.982350982350982,33.7863438044442
1743284711276,17:45:11.276,-1,1421.24542124542,0.982350982350982,33.7863438044442
1743284711295,17:45:11.295,-1,1416.11721611722,0.982350982350982,33.7863438044442
1743284711315,17:45:11.315,-1,1396.336996337,0.981906981906982,33.7863438044442
1743284711334,17:45:11.334,-1,1393.40659340659,0.981906981906982,33.7863438044442
1743284711354,17:45:11.354,-1,1394.13919413919,0.981462981462981,33.7863438044442
1743284711373,17:45:11.373,-1,1375.09157509157,0.981462981462981,33.7863438044442
1743284711393,17:45:11.393,-1,1350.91575091575,0.981462981462981,33.7863438044442
1743284711412,17:45:11.412,-1,1333.33333333333,0.981018981018981,33.7863438044442
1743284711432,17:45:11.432,-1,1317.21611721612,0.98057498057498,33.7863438044442
1743284711451,17:45:11.451,-1,1289.37728937729,0.98057498057498,33.7863438044442
1743284711471,17:45:11.471,-1,1267.39926739927,0.98057498057498,33.7863438044442
1743284711490,17:45:11.490,-1,1254.94505494505,0.98057498057498,33.7863438044442
1743284711510,17:45:11.510,-1,1243.95604395604,0.98013098013098,33.7863438044442
1743284711529,17:45:11.529,-1,1235.89743589744,0.98013098013098,33.7863438044442
1743284711549,17:45:11.549,-1,1242.49084249084,0.979686979686979,33.7863438044442
1743284711568,17:45:11.568,-1,1235.16483516484,0.98013098013098,33.7863438044442
1743284711588,17:45:11.588,-1,1224.17582417582,0.98057498057498,33.7863438044442
1743284711607,17:45:11.607,-1,1224.17582417582,0.98057498057498,33.7863438044442
1743284711627,17:45:11.627,-1,1204.3956043956,0.981018981018981,33.7863438044442
1743284711646,17:45:11.646,-1,1194.13919413919,0.98057498057498,33.7863438044442
1743284711666,17:45:11.666,-1,1189.74358974359,0.98057498057498,33.7863438044442
1743284711685,17:45:11.685,-1,1213.91941391941,0.98013098013098,33.7863438044442
1743284711705,17:45:11.705,-1,1279.12087912088,0.98057498057498,33.7863438044442
1743284711724,17:45:11.724,-1,1374.35897435897,0.98057498057498,33.7863438044442
1743284711744,17:45:11.744,-1,1481.31868131868,0.98057498057498,33.7863438044442
1743284711763,17:45:11.763,-1,1595.6043956044,0.98057498057498,33.7863438044442
1743284711783,17:45:11.783,-1,1692.30769230769,0.98057498057498,33.7863438044442
1743284711802,17:45:11.802,-1,1764.83516483516,0.98057498057498,33.7863438044442
1743284711822,17:45:11.822,-1,1804.3956043956,0.98057498057498,33.7863438044442
1743284711841,17:45:11.841,-1,1816.11721611722,0.98013098013098,33.7863438044442
1743284711861,17:45:11.861,-1,1823.44322344322,0.98013098013098,33.7863438044442
1743284711880,17:45:11.880,-1,1821.97802197802,0.98013098013098,33.7863438044442
1743284711900,17:45:11.900,-1,1806.59340659341,0.98013098013098,33.7863438044442
1743284711919,17:45:11.919,-1,1772.16117216117,0.98013098013098,33.7863438044442
1743284711939,17:45:11.939,-1,1706.22710622711,0.98013098013098,33.7863438044442
1743284711958,17:45:11.958,-1,1631.50183150183,0.979686979686979,33.7863438044442
1743284711978,17:45:11.978,-1,1569.23076923077,0.979686979686979,33.7863438044442
1743284711997,17:45:11.997,-1,1526.00732600733,0.978798978798979,33.7863438044442
1743284712017,17:45:12.017,-1,1504.7619047619,0.978798978798979,33.7863438044442
1743284712036,17:45:12.036,-1,1482.05128205128,0.978798978798979,33.7863438044442
1743284712056,17:45:12.056,-1,1473.26007326007,0.978354978354978,33.7863438044442
1743284712075,17:45:12.075,-1,1476.19047619048,0.977910977910978,33.7863438044442
1743284712095,17:45:12.095,-1,1476.92307692308,0.977466977466978,33.7863438044442
1743284712114,17:45:12.114,-1,1452.01465201465,0.977022977022977,33.7863438044442
1743284712134,17:45:12.134,-1,1419.04761904762,0.977022977022977,33.7863438044442
1743284712153,17:45:12.153,-1,1387.54578754579,0.976578976578977,33.7863438044442
1743284712173,17:45:12.173,-1,1356.04395604396,0.976578976578977,33.7863438044442
1743284712192,17:45:12.192,-1,1334.79853479853,0.976134976134976,33.7863438044442
1743284712212,17:45:12.212,-1,1318.68131868132,0.975690975690975,33.7863438044442
1743284712231,17:45:12.231,-1,1301.8315018315,0.975690975690975,33.7863438044442
1743284712251,17:45:12.251,-1,1270.32967032967,0.975246975246975,33.7863438044442
1743284712270,17:45:12.270,-1,1248.35164835165,0.975246975246975,33.7863438044442
1743284712290,17:45:12.290,-1,1232.96703296703,0.975246975246975,33.7813408817165
1743284712309,17:45:12.309,-1,1218.31501831502,0.975246975246975,33.7813408817165
1743284712329,17:45:12.329,-1,1196.336996337,0.974802974802975,33.7813408817165
1743284712348,17:45:12.348,-1,1200,0.974358974358974,33.7813408817165
1743284712368,17:45:12.368,-1,1218.31501831502,0.974358974358974,33.7813408817165
1743284712387,17:45:12.387,-1,1226.37362637363,0.974358974358974,33.7813408817165
1743284712407,17:45:12.407,-1,1218.31501831502,0.974358974358974,33.7813408817165
1743284712426,17:45:12.426,-1,1191.94139194139,0.973914973914974,33.7813408817165
1743284712446,17:45:12.446,-1,1189.74358974359,0.973026973026973,33.7813408817165
1743284712465,17:45:12.465,-1,1253.47985347985,0.972582972582972,33.7813408817165
1743284712485,17:45:12.485,-1,1372.16117216117,0.972582972582972,33.7813408817165
1743284712504,17:45:12.504,-1,1521.61172161172,0.972582972582972,33.7813408817165
1743284712524,17:45:12.524,-1,1668.86446886447,0.972582972582972,33.7813408817165
1743284712543,17:45:12.543,-1,1780.21978021978,0.972138972138972,33.7813408817165
1743284712563,17:45:12.563,-1,1859.34065934066,0.971694971694972,33.7813408817165
1743284712582,17:45:12.582,-1,1915.75091575092,0.971694971694972,33.7813408817165
1743284712602,17:45:12.602,-1,1939.19413919414,0.971694971694972,33.7813408817165
1743284712621,17:45:12.621,-1,1938.46153846154,0.971250971250971,33.7813408817165
1743284712641,17:45:12.641,-1,1930.40293040293,0.971250971250971,33.7813408817165
1743284712660,17:45:12.660,-1,1906.95970695971,0.971250971250971,33.7813408817165
1743284712680,17:45:12.680,-1,1886.44688644689,0.970806970806971,33.7813408817165
1743284712699,17:45:12.699,-1,1849.81684981685,0.970362970362971,33.7813408817165
1743284712719,17:45:12.719,-1,1769.96336996337,0.96991896991897,33.7813408817165
1743284712738,17:45:12.738,-1,1680.58608058608,0.96991896991897,33.7813408817165
1743284712758,17:45:12.758,-1,1625.64102564103,0.96991896991897,33.7813408817165
1743284712777,17:45:12.777,-1,1583.88278388278,0.96991896991897,33.7813408817165
1743284712797,17:45:12.797,-1,1553.84615384615,0.969474969474969,33.7813408817165
1743284712816,17:45:12.816,-1,1529.67032967033,0.969030969030969,33.7813408817165
1743284712836,17:45:12.836,-1,1503.2967032967,0.969030969030969,33.7813408817165
1743284712855,17:45:12.855,-1,1468.86446886447,0.968586968586968,33.7813408817165
1743284712875,17:45:12.875,-1,1438.82783882784,0.968586968586968,33.7813408817165
1743284712894,17:45:12.894,-1,1415.38461538462,0.968142968142968,33.7813408817165
1743284712914,17:45:12.914,-1,1402.1978021978,0.967698967698968,33.7813408817165
1743284712933,17:45:12.933,-1,1386.08058608059,0.967698967698968,33.7813408817165
1743284712953,17:45:12.953,-1,1345.78754578755,0.967698967698968,33.7813408817165
1743284712972,17:45:12.972,-1,1309.89010989011,0.967698967698968,33.7813408817165
1743284712992,17:45:12.992,-1,1288.64468864469,0.967254967254967,33.7813408817165
1743284713011,17:45:13.011,-1,1275.45787545788,0.966810966810967,33.7813408817165
1743284713031,17:45:13.031,-1,1252.74725274725,0.966366966366967,33.7813408817165
1743284713050,17:45:13.050,-1,1226.37362637363,0.965922965922966,33.7813408817165
1743284713070,17:45:13.070,-1,1201.4652014652,0.965922965922966,33.7813408817165
1743284713089,17:45:13.089,-1,1201.4652014652,0.965922965922966,33.7813408817165
1743284713109,17:45:13.109,-1,1200.7326007326,0.965478965478965,33.7813408817165
1743284713128,17:45:13.128,-1,1208.79120879121,0.965034965034965,33.7813408817165
1743284713148,17:45:13.148,-1,1217.58241758242,0.964590964590964,33.7813408817165
1743284713167,17:45:13.167,-1,1222.71062271062,0.964590964590964,33.7813408817165
1743284713187,17:45:13.187,-1,1218.31501831502,0.964590964590964,33.7813408817165
1743284713206,17:45:13.206,-1,1202.9304029304,0.964590964590964,33.7813408817165
1743284713226,17:45:13.226,-1,1178.75457875458,0.964590964590964,33.7813408817165
1743284713245,17:45:13.245,-1,1177.28937728938,0.964146964146964,33.7813408817165
1743284713265,17:45:13.265,-1,1227.10622710623,0.964146964146964,33.7813408817165
1743284713284,17:45:13.284,-1,1341.39194139194,0.963702963702963,33.7963496324373
1743284713304,17:45:13.304,-1,1497.4358974359,0.963702963702963,33.7963496324373
1743284713323,17:45:13.323,-1,1654.21245421245,0.963258963258963,33.7963496324373
1743284713343,17:45:13.343,-1,1782.41758241758,0.963258963258963,33.7963496324373
1743284713362,17:45:13.362,-1,1873.99267399267,0.962814962814963,33.7963496324373
1743284713382,17:45:13.382,-1,1917.21611721612,0.962370962370962,33.7963496324373
1743284713401,17:45:13.401,-1,1946.52014652015,0.962370962370962,33.7963496324373
1743284713421,17:45:13.421,-1,1952.38095238095,0.962370962370962,33.7963496324373
1743284713440,17:45:13.440,-1,1929.67032967033,0.961926961926962,33.7963496324373
1743284713460,17:45:13.460,-1,1890.10989010989,0.961482961482961,33.7963496324373
1743284713479,17:45:13.479,-1,1841.75824175824,0.961038961038961,33.7963496324373
1743284713499,17:45:13.499,-1,1786.81318681319,0.961038961038961,33.7963496324373
1743284713518,17:45:13.518,-1,1708.42490842491,0.96059496059496,33.7963496324373
1743284713538,17:45:13.538,-1,1618.31501831502,0.961038961038961,33.7963496324373
1743284713557,17:45:13.557,-1,1538.46153846154,0.96059496059496,33.7963496324373
1743284713577,17:45:13.577,-1,1484.24908424908,0.96015096015096,33.7963496324373
1743284713596,17:45:13.596,-1,1432.23443223443,0.95970695970696,33.7963496324373
1743284713616,17:45:13.616,-1,1411.72161172161,0.959262959262959,33.7963496324373
1743284713635,17:45:13.635,-1,1407.32600732601,0.959262959262959,33.7963496324373
1743284713655,17:45:13.655,-1,1400.7326007326,0.958818958818959,33.7963496324373
1743284713674,17:45:13.674,-1,1392.67399267399,0.958818958818959,33.7963496324373
1743284713694,17:45:13.694,-1,1385.34798534799,0.958374958374958,33.7963496324373
1743284713713,17:45:13.713,-1,1360.43956043956,0.957930957930958,33.7963496324373
1743284713733,17:45:13.733,-1,1330.40293040293,0.957486957486957,33.7963496324373
1743284713752,17:45:13.752,-1,1291.57509157509,0.957486957486957,33.7963496324373
1743284713772,17:45:13.772,-1,1252.74725274725,0.957042957042957,33.7963496324373
1743284713791,17:45:13.791,-1,1230.03663003663,0.957042957042957,33.7963496324373
1743284713811,17:45:13.811,-1,1222.71062271062,0.956598956598956,33.7963496324373
1743284713830,17:45:13.830,-1,1211.72161172161,0.956154956154956,33.7963496324373
1743284713850,17:45:13.850,-1,1197.8021978022,0.956154956154956,33.7963496324373
1743284713869,17:45:13.869,-1,1194.87179487179,0.955710955710956,33.7963496324373
1743284713889,17:45:13.889,-1,1194.87179487179,0.955266955266955,33.7963496324373
1743284713908,17:45:13.908,-1,1172.89377289377,0.955710955710956,33.7963496324373
1743284713928,17:45:13.928,-1,1159.70695970696,0.955266955266955,33.7963496324373
1743284713947,17:45:13.947,-1,1156.04395604396,0.954822954822955,33.7963496324373
1743284713967,17:45:13.967,-1,1148.71794871795,0.954378954378954,33.7963496324373
1743284713986,17:45:13.986,-1,1147.98534798535,0.954378954378954,33.7963496324373
1743284714006,17:45:14.006,-1,1145.05494505494,0.953934953934954,33.7963496324373
1743284714025,17:45:14.025,-1,1153.11355311355,0.953934953934954,33.7963496324373
1743284714045,17:45:14.045,-1,1213.18681318681,0.953490953490953,33.7963496324373
1743284714064,17:45:14.064,-1,1331.13553113553,0.953046953046953,33.7963496324373
1743284714084,17:45:14.084,-1,1482.05128205128,0.952602952602952,33.7963496324373
1743284714103,17:45:14.103,-1,1613.91941391941,0.952602952602952,33.7963496324373
1743284714123,17:45:14.123,-1,1719.41391941392,0.952602952602952,33.7963496324373
1743284714142,17:45:14.142,-1,1787.54578754579,0.952602952602952,33.7963496324373
1743284714162,17:45:14.162,-1,1806.59340659341,0.951714951714952,33.7963496324373
1743284714181,17:45:14.181,-1,1791.20879120879,0.951270951270951,33.7963496324373
1743284714201,17:45:14.201,-1,1760.43956043956,0.951714951714952,33.7963496324373
1743284714220,17:45:14.220,-1,1732.60073260073,0.951270951270951,33.7963496324373
1743284714240,17:45:14.240,-1,1705.49450549451,0.951270951270951,33.7963496324373
1743284714259,17:45:14.259,-1,1651.28205128205,0.950826950826951,33.7963496324373
1743284714279,17:45:14.279,-1,1580.95238095238,0.95038295038295,33.7863438044442
1743284714298,17:45:14.298,-1,1505.49450549451,0.94993894993895,33.7863438044442
1743284714318,17:45:14.318,-1,1428.57142857143,0.95038295038295,33.7863438044442
1743284714337,17:45:14.337,-1,1380.95238095238,0.94993894993895,33.7863438044442
1743284714357,17:45:14.357,-1,1353.11355311355,0.94993894993895,33.7863438044442
1743284714376,17:45:14.376,-1,1339.92673992674,0.949494949494949,33.7863438044442
1743284714396,17:45:14.396,-1,1327.47252747253,0.949050949050949,33.7863438044442
1743284714415,17:45:14.415,-1,1315.75091575092,0.948606948606948,33.7863438044442
1743284714435,17:45:14.435,-1,1315.01831501831,0.948606948606948,33.7863438044442
1743284714454,17:45:14.454,-1,1303.2967032967,0.948606948606948,33.7863438044442
1743284714474,17:45:14.474,-1,1284.98168498168,0.948606948606948,33.7863438044442
1743284714493,17:45:14.493,-1,1263.00366300366,0.948162948162948,33.7863438044442
1743284714513,17:45:14.513,-1,1234.43223443223,0.947718947718947,33.7863438044442
1743284714532,17:45:14.532,-1,1201.4652014652,0.947718947718947,33.7863438044442
1743284714552,17:45:14.552,-1,1176.55677655678,0.947718947718947,33.7863438044442
1743284714571,17:45:14.571,-1,1161.90476190476,0.947718947718947,33.7863438044442
1743284714591,17:45:14.591,-1,1173.62637362637,0.947274947274947,33.7863438044442
1743284714610,17:45:14.610,-1,1182.41758241758,0.946830946830947,33.7863438044442
1743284714630,17:45:14.630,-1,1172.89377289377,0.945942945942946,33.7863438044442
1743284714649,17:45:14.649,-1,1155.31135531136,0.946386946386946,33.7863438044442
1743284714669,17:45:14.669,-1,1143.58974358974,0.946386946386946,33.7863438044442
1743284714688,17:45:14.688,-1,1120.87912087912,0.946386946386946,33.7863438044442
1743284714708,17:45:14.708,-1,1120.14652014652,0.946386946386946,33.7863438044442
1743284714727,17:45:14.727,-1,1109.15750915751,0.945942945942946,33.7863438044442
1743284714747,17:45:14.747,-1,1128.20512820513,0.945498945498945,33.7863438044442
1743284714766,17:45:14.766,-1,1205.12820512821,0.945054945054945,33.7863438044442
1743284714786,17:45:14.786,-1,1322.34432234432,0.945054945054945,33.7863438044442
1743284714805,17:45:14.805,-1,1445.42124542125,0.945054945054945,33.7863438044442
1743284714825,17:45:14.825,-1,1568.49816849817,0.944610944610945,33.7863438044442
1743284714844,17:45:14.844,-1,1668.86446886447,0.944166944166944,33.7863438044442
1743284714864,17:45:14.864,-1,1722.34432234432,0.944166944166944,33.7863438044442
1743284714883,17:45:14.883,-1,1726.73992673993,0.943722943722944,33.7863438044442
1743284714903,17:45:14.903,-1,1712.08791208791,0.943722943722944,33.7863438044442
1743284714922,17:45:14.922,-1,1680.58608058608,0.944166944166944,33.7863438044442
1743284714942,17:45:14.942,-1,1635.89743589744,0.943722943722944,33.7863438044442
1743284714961,17:45:14.961,-1,1594.87179487179,0.943278943278943,33.7863438044442
1743284714981,17:45:14.981,-1,1550.91575091575,0.942834942834943,33.7863438044442
1743284715000,17:45:15.000,-1,1511.35531135531,0.942834942834943,33.7863438044442
1743284715020,17:45:15.020,-1,1463.00366300366,0.942390942390942,33.7863438044442
1743284715039,17:45:15.039,-1,1406.59340659341,0.942390942390942,33.7863438044442
1743284715059,17:45:15.059,-1,1364.83516483516,0.941946941946942,33.7863438044442
1743284715078,17:45:15.078,-1,1334.79853479853,0.941946941946942,33.7863438044442
1743284715098,17:45:15.098,-1,1309.15750915751,0.941502941502941,33.7863438044442
1743284715117,17:45:15.117,-1,1287.91208791209,0.941502941502941,33.7863438044442
1743284715137,17:45:15.137,-1,1266.66666666667,0.941058941058941,33.7863438044442
1743284715156,17:45:15.156,-1,1252.74725274725,0.94061494061494,33.7863438044442
1743284715176,17:45:15.176,-1,1254.94505494505,0.94017094017094,33.7863438044442
1743284715195,17:45:15.195,-1,1265.93406593407,0.94017094017094,33.7863438044442
1743284715215,17:45:15.215,-1,1243.22344322344,0.93972693972694,33.7863438044442
1743284715234,17:45:15.234,-1,1218.31501831502,0.939282939282939,33.7863438044442
1743284715254,17:45:15.254,-1,1193.40659340659,0.939282939282939,33.7863438044442
1743284715273,17:45:15.273,-1,1172.89377289377,0.938838938838939,33.7863438044442
1743284715293,17:45:15.293,-1,1156.04395604396,0.938838938838939,33.7863438044442
1743284715312,17:45:15.312,-1,1143.58974358974,0.938394938394938,33.7863438044442
1743284715332,17:45:15.332,-1,1144.32234432234,0.937950937950938,33.7863438044442
1743284715351,17:45:15.351,-1,1144.32234432234,0.937506937506937,33.7863438044442
1743284715371,17:45:15.371,-1,1134.79853479853,0.937506937506937,33.7863438044442
1743284715390,17:45:15.390,-1,1118.68131868132,0.937506937506937,33.7863438044442
1743284715410,17:45:15.410,-1,1123.80952380952,0.937062937062937,33.7863438044442
1743284715429,17:45:15.429,-1,1126.73992673993,0.936618936618936,33.7863438044442
1743284715449,17:45:15.449,-1,1103.2967032967,0.936174936174936,33.7863438044442
1743284715468,17:45:15.468,-1,1098.1684981685,0.936618936618936,33.7863438044442
1743284715488,17:45:15.488,-1,1115.01831501831,0.936618936618936,33.7863438044442
1743284715507,17:45:15.507,-1,1163.36996336996,0.936174936174936,33.7863438044442
1743284715527,17:45:15.527,-1,1246.15384615385,0.936174936174936,33.7863438044442
1743284715546,17:45:15.546,-1,1367.03296703297,0.935286935286935,33.7863438044442
1743284715566,17:45:15.566,-1,1483.51648351648,0.935286935286935,33.7863438044442
1743284715585,17:45:15.585,-1,1567.03296703297,0.935286935286935,33.7863438044442
1743284715605,17:45:15.605,-1,1627.83882783883,0.935286935286935,33.7863438044442
1743284715624,17:45:15.624,-1,1677.65567765568,0.935286935286935,33.7863438044442
1743284715644,17:45:15.644,-1,1715.01831501831,0.934842934842935,33.7863438044442
1743284715663,17:45:15.663,-1,1732.60073260073,0.934842934842935,33.7863438044442
1743284715683,17:45:15.683,-1,1728.93772893773,0.934398934398934,33.7863438044442
1743284715702,17:45:15.702,-1,1697.4358974359,0.934398934398934,33.7863438044442
1743284715722,17:45:15.722,-1,1639.56043956044,0.933954933954934,33.7863438044442
1743284715741,17:45:15.741,-1,1582.41758241758,0.933954933954934,33.7863438044442
1743284715761,17:45:15.761,-1,1534.06593406593,0.933510933510933,33.7863438044442
1743284715780,17:45:15.780,-1,1480.58608058608,0.933510933510933,33.7863438044442
1743284715800,17:45:15.800,-1,1424.90842490842,0.933066933066933,33.7863438044442
1743284715819,17:45:15.819,-1,1386.08058608059,0.933510933510933,33.7863438044442
1743284715839,17:45:15.839,-1,1367.76556776557,0.933066933066933,33.7863438044442
1743284715858,17:45:15.858,-1,1352.38095238095,0.933066933066933,33.7863438044442
1743284715878,17:45:15.878,-1,1340.65934065934,0.932622932622933,33.7863438044442
1743284715897,17:45:15.897,-1,1335.53113553114,0.932178932178932,33.7863438044442
1743284715917,17:45:15.917,-1,1305.49450549451,0.932178932178932,33.7863438044442
1743284715936,17:45:15.936,-1,1287.91208791209,0.931734931734932,33.7863438044442
1743284715956,17:45:15.956,-1,1273.99267399267,0.932178932178932,33.7863438044442
1743284715975,17:45:15.975,-1,1249.81684981685,0.931734931734932,33.7863438044442
1743284715995,17:45:15.995,-1,1230.76923076923,0.931290931290931,33.7863438044442
1743284716014,17:45:16.014,-1,1221.97802197802,0.930846930846931,33.7863438044442
1743284716034,17:45:16.034,-1,1213.18681318681,0.930846930846931,33.7863438044442
1743284716053,17:45:16.053,-1,1203.663003663,0.930846930846931,33.7863438044442
1743284716073,17:45:16.073,-1,1183.88278388278,0.930846930846931,33.7863438044442
1743284716092,17:45:16.092,-1,1154.57875457875,0.93040293040293,33.7863438044442
1743284716112,17:45:16.112,-1,1138.46153846154,0.92995892995893,33.7863438044442
1743284716131,17:45:16.131,-1,1134.06593406593,0.92995892995893,33.7863438044442
1743284716151,17:45:16.151,-1,1129.67032967033,0.929514929514929,33.7863438044442
1743284716170,17:45:16.170,-1,1136.26373626374,0.929514929514929,33.7863438044442
1743284716190,17:45:16.190,-1,1132.60073260073,0.929514929514929,33.7863438044442
1743284716209,17:45:16.209,-1,1129.67032967033,0.929070929070929,33.7863438044442
1743284716229,17:45:16.229,-1,1124.54212454212,0.928626928626929,33.7863438044442
1743284716248,17:45:16.248,-1,1118.68131868132,0.928626928626929,33.7863438044442
1743284716268,17:45:16.268,-1,1136.99633699634,0.928626928626929,33.7813408817165
1743284716287,17:45:16.287,-1,1196.336996337,0.928626928626929,33.7813408817165
1743284716307,17:45:16.307,-1,1274.72527472527,0.928626928626929,33.7813408817165
1743284716326,17:45:16.326,-1,1362.63736263736,0.928182928182928,33.7813408817165
1743284716346,17:45:16.346,-1,1459.34065934066,0.927738927738928,33.7813408817165
1743284716365,17:45:16.365,-1,1556.77655677656,0.927738927738928,33.7813408817165
1743284716385,17:45:16.385,-1,1624.17582417582,0.927738927738928,33.7813408817165
1743284716404,17:45:16.404,-1,1668.86446886447,0.927294927294927,33.7813408817165
1743284716424,17:45:16.424,-1,1701.8315018315,0.927294927294927,33.7813408817165
1743284716443,17:45:16.443,-1,1716.48351648352,0.927294927294927,33.7813408817165
1743284716463,17:45:16.463,-1,1701.8315018315,0.926850926850927,33.7813408817165
1743284716482,17:45:16.482,-1,1676.92307692308,0.926406926406926,33.7813408817165
1743284716502,17:45:16.502,-1,1645.42124542125,0.926406926406926,33.7813408817165
1743284716521,17:45:16.521,-1,1593.40659340659,0.926406926406926,33.7813408817165
1743284716541,17:45:16.541,-1,1535.53113553114,0.925962925962926,33.7813408817165
1743284716560,17:45:16.560,-1,1484.24908424908,0.925962925962926,33.7813408817165
1743284716580,17:45:16.580,-1,1428.57142857143,0.925518925518925,33.7813408817165
1743284716599,17:45:16.599,-1,1398.5347985348,0.925518925518925,33.7813408817165
1743284716619,17:45:16.619,-1,1381.68498168498,0.925518925518925,33.7813408817165
1743284716638,17:45:16.638,-1,1361.17216117216,0.925518925518925,33.7813408817165
1743284716658,17:45:16.658,-1,1343.58974358974,0.925518925518925,33.7813408817165
1743284716677,17:45:16.677,-1,1335.53113553114,0.925074925074925,33.7813408817165
1743284716697,17:45:16.697,-1,1331.13553113553,0.924630924630925,33.7813408817165
1743284716716,17:45:16.716,-1,1315.01831501831,0.924186924186924,33.7813408817165
1743284716736,17:45:16.736,-1,1287.91208791209,0.924186924186924,33.7813408817165
1743284716755,17:45:16.755,-1,1264.46886446886,0.924186924186924,33.7813408817165
1743284716775,17:45:16.775,-1,1245.42124542125,0.923742923742924,33.7813408817165
1743284716794,17:45:16.794,-1,1227.10622710623,0.923298923298923,33.7813408817165
1743284716814,17:45:16.814,-1,1213.18681318681,0.923298923298923,33.7813408817165
1743284716833,17:45:16.833,-1,1190.47619047619,0.923742923742924,33.7813408817165
1743284716853,17:45:16.853,-1,1161.90476190476,0.923298923298923,33.7813408817165
1743284716872,17:45:16.872,-1,1159.70695970696,0.923298923298923,33.7813408817165
1743284716892,17:45:16.892,-1,1175.09157509158,0.922854922854923,33.7813408817165
1743284716911,17:45:16.911,-1,1193.40659340659,0.922410922410922,33.7813408817165
1743284716931,17:45:16.931,-1,1198.5347985348,0.921966921966922,33.7813408817165
1743284716950,17:45:16.950,-1,1185.34798534799,0.921522921522922,33.7813408817165
1743284716970,17:45:16.970,-1,1168.49816849817,0.921522921522922,33.7813408817165
1743284716989,17:45:16.989,-1,1156.77655677656,0.921522921522922,33.7813408817165
1743284717009,17:45:17.009,-1,1153.11355311355,0.921522921522922,33.7813408817165
1743284717028,17:45:17.028,-1,1145.05494505494,0.921078921078921,33.7813408817165
1743284717048,17:45:17.048,-1,1139.92673992674,0.920634920634921,33.7813408817165
1743284717067,17:45:17.067,-1,1150.91575091575,0.920634920634921,33.7813408817165
1743284717087,17:45:17.087,-1,1173.62637362637,0.920634920634921,33.7813408817165
1743284717106,17:45:17.106,-1,1223.44322344322,0.920634920634921,33.7813408817165
1743284717126,17:45:17.126,-1,1309.15750915751,0.92019092019092,33.7813408817165
1743284717145,17:45:17.145,-1,1408.05860805861,0.91974691974692,33.7813408817165
1743284717165,17:45:17.165,-1,1508.42490842491,0.91974691974692,33.7813408817165
1743284717184,17:45:17.184,-1,1598.5347985348,0.91974691974692,33.7813408817165
1743284717204,17:45:17.204,-1,1669.59706959707,0.91974691974692,33.7813408817165
1743284717223,17:45:17.223,-1,1707.69230769231,0.919302919302919,33.7813408817165
1743284717243,17:45:17.243,-1,1728.93772893773,0.919302919302919,33.7813408817165
1743284717262,17:45:17.262,-1,1737.72893772894,0.918858918858919,33.776337953168
1743284717282,17:45:17.282,-1,1723.80952380952,0.918858918858919,33.776337953168
1743284717301,17:45:17.301,-1,1698.1684981685,0.918858918858919,33.776337953168
1743284717321,17:45:17.321,-1,1676.19047619048,0.918858918858919,33.776337953168
1743284717340,17:45:17.340,-1,1632.96703296703,0.918414918414918,33.776337953168
1743284717360,17:45:17.360,-1,1569.23076923077,0.917970917970918,33.776337953168
1743284717379,17:45:17.379,-1,1496.7032967033,0.917970917970918,33.776337953168
1743284717399,17:45:17.399,-1,1445.42124542125,0.917526917526918,33.776337953168
1743284717418,17:45:17.418,-1,1415.38461538462,0.917526917526918,33.776337953168
1743284717438,17:45:17.438,-1,1388.27838827839,0.917526917526918,33.776337953168
1743284717457,17:45:17.457,-1,1386.81318681319,0.917082917082917,33.776337953168
1743284717477,17:45:17.477,-1,1389.01098901099,0.916638916638917,33.776337953168
1743284717496,17:45:17.496,-1,1375.82417582418,0.916638916638917,33.776337953168
1743284717516,17:45:17.516,-1,1352.38095238095,0.916194916194916,33.776337953168
1743284717535,17:45:17.535,-1,1329.67032967033,0.915750915750916,33.776337953168
1743284717555,17:45:17.555,-1,1311.35531135531,0.915750915750916,33.776337953168
1743284717574,17:45:17.574,-1,1284.24908424908,0.915750915750916,33.776337953168
1743284717594,17:45:17.594,-1,1259.34065934066,0.914862914862915,33.776337953168
1743284717613,17:45:17.613,-1,1238.82783882784,0.914862914862915,33.776337953168
1743284717633,17:45:17.633,-1,1226.37362637363,0.914862914862915,33.776337953168
1743284717652,17:45:17.652,-1,1216.11721611722,0.914862914862915,33.776337953168
1743284717672,17:45:17.672,-1,1209.52380952381,0.914418914418914,33.776337953168
1743284717691,17:45:17.691,-1,1215.38461538462,0.914418914418914,33.776337953168
1743284717711,17:45:17.711,-1,1207.32600732601,0.913974913974914,33.776337953168
1743284717730,17:45:17.730,-1,1198.5347985348,0.913974913974914,33.776337953168
1743284717750,17:45:17.750,-1,1208.79120879121,0.913530913530914,33.776337953168
1743284717769,17:45:17.769,-1,1212.45421245421,0.913530913530914,33.776337953168
1743284717789,17:45:17.789,-1,1203.663003663,0.913530913530914,33.776337953168
1743284717808,17:45:17.808,-1,1184.61538461538,0.913086913086913,33.776337953168
1743284717828,17:45:17.828,-1,1180.21978021978,0.912642912642912,33.776337953168
1743284717847,17:45:17.847,-1,1178.75457875458,0.912642912642912,33.776337953168
1743284717867,17:45:17.867,-1,1187.54578754579,0.912642912642912,33.776337953168
1743284717886,17:45:17.886,-1,1217.58241758242,0.912642912642912,33.776337953168
1743284717906,17:45:17.906,-1,1298.1684981685,0.912198912198912,33.776337953168
1743284717925,17:45:17.925,-1,1405.86080586081,0.912198912198912,33.776337953168
1743284717945,17:45:17.945,-1,1506.95970695971,0.911754911754912,33.776337953168
1743284717964,17:45:17.964,-1,1597.0695970696,0.911754911754912,33.776337953168
1743284717984,17:45:17.984,-1,1656.41025641026,0.911310911310911,33.776337953168
1743284718003,17:45:18.003,-1,1696.7032967033,0.911754911754912,33.776337953168
1743284718023,17:45:18.023,-1,1714.28571428571,0.911754911754912,33.776337953168
1743284718042,17:45:18.042,-1,1716.48351648352,0.910866910866911,33.776337953168
1743284718062,17:45:18.062,-1,1711.35531135531,0.91042291042291,33.776337953168
1743284718081,17:45:18.081,-1,1695.9706959707,0.91042291042291,33.776337953168
1743284718101,17:45:18.101,-1,1668.86446886447,0.910866910866911,33.776337953168
1743284718120,17:45:18.120,-1,1616.11721611722,0.91042291042291,33.776337953168
1743284718140,17:45:18.140,-1,1547.98534798535,0.91042291042291,33.776337953168
1743284718159,17:45:18.159,-1,1479.12087912088,0.90997890997891,33.776337953168
1743284718179,17:45:18.179,-1,1425.64102564103,0.90953490953491,33.776337953168
1743284718198,17:45:18.198,-1,1401.4652014652,0.909090909090909,33.776337953168
1743284718218,17:45:18.218,-1,1386.08058608059,0.909090909090909,33.776337953168
1743284718237,17:45:18.237,-1,1389.74358974359,0.908646908646909,33.776337953168
1743284718257,17:45:18.257,-1,1402.9304029304,0.908646908646909,33.7863438044442
1743284718276,17:45:18.276,-1,1409.52380952381,0.908202908202908,33.7863438044442
1743284718296,17:45:18.296,-1,1400,0.908202908202908,33.7863438044442
1743284718315,17:45:18.315,-1,1379.48717948718,0.907758907758908,33.7863438044442
1743284718335,17:45:18.335,-1,1358.24175824176,0.907758907758908,33.7863438044442
1743284718354,17:45:18.354,-1,1339.19413919414,0.907758907758908,33.7863438044442
1743284718374,17:45:18.374,-1,1309.15750915751,0.907758907758908,33.7863438044442
1743284718393,17:45:18.393,-1,1284.98168498168,0.907758907758908,33.7863438044442
1743284718413,17:45:18.413,-1,1257.14285714286,0.907314907314907,33.7863438044442
1743284718432,17:45:18.432,-1,1238.82783882784,0.907314907314907,33.7863438044442
1743284718452,17:45:18.452,-1,1215.38461538462,0.907314907314907,33.7863438044442
1743284718471,17:45:18.471,-1,1200,0.906870906870907,33.7863438044442
1743284718491,17:45:18.491,-1,1196.336996337,0.906870906870907,33.7863438044442
1743284718510,17:45:18.510,-1,1200,0.906426906426906,33.7863438044442
1743284718530,17:45:18.530,-1,1193.40659340659,0.905982905982906,33.7863438044442
1743284718549,17:45:18.549,-1,1186.08058608059,0.905982905982906,33.7863438044442
1743284718569,17:45:18.569,-1,1186.08058608059,0.905982905982906,33.7863438044442
1743284718588,17:45:18.588,-1,1184.61538461538,0.906426906426906,33.7863438044442
1743284718608,17:45:18.608,-1,1231.50183150183,0.905982905982906,33.7863438044442
1743284718627,17:45:18.627,-1,1323.80952380952,0.905538905538905,33.7863438044442
1743284718647,17:45:18.647,-1,1439.56043956044,0.905538905538905,33.7863438044442
1743284718666,17:45:18.666,-1,1550.91575091575,0.905094905094905,33.7863438044442
1743284718686,17:45:18.686,-1,1652.74725274725,0.905094905094905,33.7863438044442
1743284718705,17:45:18.705,-1,1732.60073260073,0.904650904650905,33.7863438044442
1743284718725,17:45:18.725,-1,1778.02197802198,0.904206904206904,33.7863438044442
1743284718744,17:45:18.744,-1,1805.12820512821,0.904206904206904,33.7863438044442
1743284718764,17:45:18.764,-1,1813.18681318681,0.904206904206904,33.7863438044442
1743284718783,17:45:18.783,-1,1801.4652014652,0.903762903762904,33.7863438044442
1743284718803,17:45:18.803,-1,1782.41758241758,0.903762903762904,33.7863438044442
1743284718822,17:45:18.822,-1,1758.97435897436,0.903762903762904,33.7863438044442
1743284718842,17:45:18.842,-1,1728.93772893773,0.903762903762904,33.7863438044442
1743284718861,17:45:18.861,-1,1673.26007326007,0.903318903318903,33.7863438044442
1743284718881,17:45:18.881,-1,1589.74358974359,0.903318903318903,33.7863438044442
1743284718900,17:45:18.900,-1,1522.34432234432,0.903318903318903,33.7863438044442
1743284718920,17:45:18.920,-1,1482.78388278388,0.903318903318903,33.7863438044442
1743284718939,17:45:18.939,-1,1453.47985347985,0.903318903318903,33.7863438044442
1743284718959,17:45:18.959,-1,1435.16483516484,0.902874902874903,33.7863438044442
1743284718978,17:45:18.978,-1,1426.37362637363,0.902430902430902,33.7863438044442
1743284718998,17:45:18.998,-1,1426.37362637363,0.901986901986902,33.7863438044442
1743284719017,17:45:19.017,-1,1405.86080586081,0.901986901986902,33.7863438044442
1743284719037,17:45:19.037,-1,1379.48717948718,0.902430902430902,33.7863438044442
1743284719056,17:45:19.056,-1,1347.98534798535,0.901986901986902,33.7863438044442
1743284719076,17:45:19.076,-1,1320.87912087912,0.901098901098901,33.7863438044442
1743284719095,17:45:19.095,-1,1287.17948717949,0.901098901098901,33.7863438044442
1743284719115,17:45:19.115,-1,1265.20146520147,0.900654900654901,33.7863438044442
1743284719134,17:45:19.134,-1,1254.94505494505,0.900654900654901,33.7863438044442
1743284719154,17:45:19.154,-1,1254.21245421245,0.900654900654901,33.7863438044442
1743284719173,17:45:19.173,-1,1249.81684981685,0.9002109002109,33.7863438044442
1743284719193,17:45:19.193,-1,1236.63003663004,0.9002109002109,33.7863438044442
1743284719212,17:45:19.212,-1,1224.90842490842,0.8997668997669,33.7863438044442
1743284719232,17:45:19.232,-1,1225.64102564103,0.8997668997669,33.7863438044442
1743284719251,17:45:19.251,-1,1226.37362637363,0.8997668997669,33.776337953168
1743284719271,17:45:19.271,-1,1214.65201465201,0.899322899322899,33.776337953168
1743284719290,17:45:19.290,-1,1195.6043956044,0.899322899322899,33.776337953168
1743284719310,17:45:19.310,-1,1183.15018315018,0.898878898878899,33.776337953168
1743284719329,17:45:19.329,-1,1171.42857142857,0.898434898434898,33.776337953168
1743284719349,17:45:19.349,-1,1169.23076923077,0.898434898434898,33.776337953168
1743284719368,17:45:19.368,-1,1202.9304029304,0.897990897990898,33.776337953168
1743284719388,17:45:19.388,-1,1295.2380952381,0.897990897990898,33.776337953168
1743284719407,17:45:19.407,-1,1426.37362637363,0.897546897546897,33.776337953168
1743284719427,17:45:19.427,-1,1569.96336996337,0.897102897102897,33.776337953168
1743284719446,17:45:19.446,-1,1695.9706959707,0.897102897102897,33.776337953168
1743284719466,17:45:19.466,-1,1797.8021978022,0.897102897102897,33.776337953168
1743284719485,17:45:19.485,-1,1852.01465201465,0.896658896658897,33.776337953168
1743284719505,17:45:19.505,-1,1872.52747252747,0.896658896658897,33.776337953168
1743284719524,17:45:19.524,-1,1879.12087912088,0.896214896214896,33.776337953168
1743284719544,17:45:19.544,-1,1876.19047619048,0.895770895770896,33.776337953168
1743284719563,17:45:19.563,-1,1853.47985347985,0.895326895326895,33.776337953168
1743284719583,17:45:19.583,-1,1827.10622710623,0.895326895326895,33.776337953168
1743284719602,17:45:19.602,-1,1790.47619047619,0.894882894882895,33.776337953168
1743284719622,17:45:19.622,-1,1721.61172161172,0.894438894438894,33.776337953168
1743284719641,17:45:19.641,-1,1630.03663003663,0.893994893994894,33.776337953168
1743284719661,17:45:19.661,-1,1558.97435897436,0.893550893550894,33.776337953168
1743284719680,17:45:19.680,-1,1522.34432234432,0.893106893106893,33.776337953168
1743284719700,17:45:19.700,-1,1493.77289377289,0.893106893106893,33.776337953168
1743284719719,17:45:19.719,-1,1469.59706959707,0.893106893106893,33.776337953168
1743284719739,17:45:19.739,-1,1428.57142857143,0.892662892662893,33.776337953168
1743284719758,17:45:19.758,-1,1394.13919413919,0.892218892218892,33.776337953168
1743284719778,17:45:19.778,-1,1386.08058608059,0.891774891774892,33.776337953168
1743284719797,17:45:19.797,-1,1373.62637362637,0.891330891330891,33.776337953168
1743284719817,17:45:19.817,-1,1347.25274725275,0.891330891330891,33.776337953168
1743284719836,17:45:19.836,-1,1315.75091575092,0.891330891330891,33.776337953168
1743284719856,17:45:19.856,-1,1290.10989010989,0.891330891330891,33.776337953168
1743284719875,17:45:19.875,-1,1255.67765567766,0.890886890886891,33.776337953168
1743284719895,17:45:19.895,-1,1227.10622710623,0.89044289044289,33.776337953168
1743284719914,17:45:19.914,-1,1201.4652014652,0.89044289044289,33.776337953168
1743284719934,17:45:19.934,-1,1186.81318681319,0.89044289044289,33.776337953168
1743284719953,17:45:19.953,-1,1184.61538461538,0.89044289044289,33.776337953168
1743284719973,17:45:19.973,-1,1184.61538461538,0.88999888999889,33.776337953168
1743284719992,17:45:19.992,-1,1192.67399267399,0.889554889554889,33.776337953168
1743284720012,17:45:20.012,-1,1203.663003663,0.889110889110889,33.776337953168
1743284720031,17:45:20.031,-1,1201.4652014652,0.889110889110889,33.776337953168
1743284720051,17:45:20.051,-1,1191.94139194139,0.889110889110889,33.776337953168
1743284720070,17:45:20.070,-1,1187.54578754579,0.888666888666889,33.776337953168
1743284720090,17:45:20.090,-1,1187.54578754579,0.888666888666889,33.776337953168
1743284720109,17:45:20.109,-1,1192.67399267399,0.888222888222888,33.776337953168
1743284720129,17:45:20.129,-1,1191.20879120879,0.887778887778888,33.776337953168
1743284720148,17:45:20.148,-1,1172.89377289377,0.888222888222888,33.776337953168
1743284720168,17:45:20.168,-1,1164.10256410256,0.887778887778888,33.776337953168
1743284720187,17:45:20.187,-1,1187.54578754579,0.887778887778888,33.776337953168
1743284720207,17:45:20.207,-1,1264.46886446886,0.887334887334887,33.776337953168
1743284720226,17:45:20.226,-1,1380.95238095238,0.886890886890887,33.776337953168
1743284720246,17:45:20.246,-1,1508.42490842491,0.886446886446886,33.7713350187987
1743284720265,17:45:20.265,-1,1621.97802197802,0.886002886002886,33.7713350187987
1743284720285,17:45:20.285,-1,1714.28571428571,0.886002886002886,33.7713350187987
1743284720304,17:45:20.304,-1,1785.34798534799,0.886002886002886,33.7713350187987
1743284720324,17:45:20.324,-1,1830.03663003663,0.886002886002886,33.7713350187987
1743284720343,17:45:20.343,-1,1839.56043956044,0.885114885114885,33.7713350187987
1743284720363,17:45:20.363,-1,1832.23443223443,0.885114885114885,33.7713350187987
1743284720382,17:45:20.382,-1,1820.51282051282,0.885114885114885,33.7713350187987
1743284720402,17:45:20.402,-1,1802.1978021978,0.885114885114885,33.7713350187987
1743284720421,17:45:20.421,-1,1767.03296703297,0.885114885114885,33.7713350187987
1743284720441,17:45:20.441,-1,1704.7619047619,0.884670884670885,33.7713350187987
1743284720460,17:45:20.460,-1,1630.76923076923,0.884226884226884,33.7713350187987
1743284720480,17:45:20.480,-1,1559.70695970696,0.884226884226884,33.7713350187987
1743284720499,17:45:20.499,-1,1501.8315018315,0.883782883782884,33.7713350187987
1743284720519,17:45:20.519,-1,1462.27106227106,0.884226884226884,33.7713350187987
1743284720538,17:45:20.538,-1,1432.96703296703,0.884226884226884,33.7713350187987
1743284720558,17:45:20.558,-1,1411.72161172161,0.884226884226884,33.7713350187987
1743284720577,17:45:20.577,-1,1393.40659340659,0.883782883782884,33.7713350187987
1743284720597,17:45:20.597,-1,1377.28937728938,0.883782883782884,33.7713350187987
1743284720616,17:45:20.616,-1,1359.70695970696,0.883782883782884,33.7713350187987
1743284720636,17:45:20.636,-1,1342.12454212454,0.883338883338883,33.7713350187987
1743284720655,17:45:20.655,-1,1323.80952380952,0.883782883782884,33.7713350187987
1743284720675,17:45:20.675,-1,1306.22710622711,0.883338883338883,33.7713350187987
1743284720694,17:45:20.694,-1,1286.44688644689,0.883338883338883,33.7713350187987
1743284720714,17:45:20.714,-1,1278.38827838828,0.882894882894883,33.7713350187987
1743284720733,17:45:20.733,-1,1258.60805860806,0.882894882894883,33.7713350187987
1743284720753,17:45:20.753,-1,1235.89743589744,0.882894882894883,33.7713350187987
1743284720772,17:45:20.772,-1,1222.71062271062,0.882006882006882,33.7713350187987
1743284720792,17:45:20.792,-1,1227.83882783883,0.881118881118881,33.7713350187987
1743284720811,17:45:20.811,-1,1222.71062271062,0.88023088023088,33.7713350187987
1743284720831,17:45:20.831,-1,1215.38461538462,0.88023088023088,33.7713350187987
1743284720850,17:45:20.850,-1,1209.52380952381,0.88023088023088,33.7713350187987
1743284720870,17:45:20.870,-1,1199.2673992674,0.87978687978688,33.7713350187987
1743284720889,17:45:20.889,-1,1188.27838827839,0.87978687978688,33.7713350187987
1743284720909,17:45:20.909,-1,1164.83516483516,0.879342879342879,33.7713350187987
1743284720928,17:45:20.928,-1,1147.25274725275,0.878898878898879,33.7713350187987
1743284720948,17:45:20.948,-1,1147.98534798535,0.878898878898879,33.7713350187987
1743284720967,17:45:20.967,-1,1152.38095238095,0.878898878898879,33.7713350187987
1743284720987,17:45:20.987,-1,1167.03296703297,0.878898878898879,33.7713350187987
1743284721006,17:45:21.006,-1,1207.32600732601,0.878454878454878,33.7713350187987
1743284721026,17:45:21.026,-1,1301.0989010989,0.878454878454878,33.7713350187987
1743284721045,17:45:21.045,-1,1429.30402930403,0.878010878010878,33.7713350187987
1743284721065,17:45:21.065,-1,1556.04395604396,0.877566877566877,33.7713350187987
1743284721084,17:45:21.084,-1,1657.14285714286,0.878010878010878,33.7713350187987
1743284721104,17:45:21.104,-1,1717.21611721612,0.877566877566877,33.7713350187987
1743284721123,17:45:21.123,-1,1756.77655677656,0.877122877122877,33.7713350187987
1743284721143,17:45:21.143,-1,1767.76556776557,0.877122877122877,33.7713350187987
1743284721162,17:45:21.162,-1,1759.70695970696,0.877122877122877,33.7713350187987
1743284721182,17:45:21.182,-1,1755.31135531136,0.876678876678877,33.7713350187987
1743284721201,17:45:21.201,-1,1741.39194139194,0.877122877122877,33.7713350187987
1743284721221,17:45:21.221,-1,1717.21611721612,0.877122877122877,33.7713350187987
1743284721240,17:45:21.240,-1,1669.59706959707,0.876678876678877,33.7663320786087
1743284721260,17:45:21.260,-1,1609.52380952381,0.876234876234876,33.7663320786087
1743284721279,17:45:21.279,-1,1542.12454212454,0.875790875790876,33.7663320786087
1743284721299,17:45:21.299,-1,1481.31868131868,0.875346875346875,33.7663320786087
1743284721318,17:45:21.318,-1,1435.16483516484,0.875346875346875,33.7663320786087
1743284721338,17:45:21.338,-1,1405.12820512821,0.874902874902875,33.7663320786087
1743284721357,17:45:21.357,-1,1392.67399267399,0.874458874458874,33.7663320786087
1743284721377,17:45:21.377,-1,1386.81318681319,0.874458874458874,33.7663320786087
1743284721396,17:45:21.396,-1,1378.75457875458,0.874014874014874,33.7663320786087
1743284721416,17:45:21.416,-1,1364.83516483516,0.874014874014874,33.7663320786087
1743284721435,17:45:21.435,-1,1353.84615384615,0.873570873570874,33.7663320786087
1743284721455,17:45:21.455,-1,1336.99633699634,0.873570873570874,33.7663320786087
1743284721474,17:45:21.474,-1,1314.28571428571,0.873570873570874,33.7663320786087
1743284721494,17:45:21.494,-1,1288.64468864469,0.873126873126873,33.7663320786087
1743284721513,17:45:21.513,-1,1273.26007326007,0.872682872682873,33.7663320786087
1743284721533,17:45:21.533,-1,1258.60805860806,0.872682872682873,33.7663320786087
1743284721552,17:45:21.552,-1,1233.69963369963,0.872682872682873,33.7663320786087
1743284721572,17:45:21.572,-1,1209.52380952381,0.872682872682873,33.7663320786087
1743284721591,17:45:21.591,-1,1200.7326007326,0.871794871794872,33.7663320786087
1743284721611,17:45:21.611,-1,1202.1978021978,0.871350871350871,33.7663320786087
1743284721630,17:45:21.630,-1,1205.12820512821,0.871794871794872,33.7663320786087
1743284721650,17:45:21.650,-1,1210.25641025641,0.871350871350871,33.7663320786087
1743284721669,17:45:21.669,-1,1210.98901098901,0.871350871350871,33.7663320786087
1743284721689,17:45:21.689,-1,1196.336996337,0.871350871350871,33.7663320786087
1743284721708,17:45:21.708,-1,1189.74358974359,0.870906870906871,33.7663320786087
1743284721728,17:45:21.728,-1,1210.98901098901,0.870906870906871,33.7663320786087
1743284721748,17:45:21.747,-1,1287.91208791209,0.870906870906871,33.7663320786087
1743284721767,17:45:21.767,-1,1412.45421245421,0.87046287046287,33.7663320786087
1743284721787,17:45:21.786,-1,1530.40293040293,0.87046287046287,33.7663320786087
1743284721806,17:45:21.806,-1,1636.63003663004,0.87001887001887,33.7663320786087
1743284721826,17:45:21.825,-1,1720.14652014652,0.86957486957487,33.7663320786087
1743284721845,17:45:21.845,-1,1769.96336996337,0.86957486957487,33.7663320786087
1743284721865,17:45:21.865,-1,1791.20879120879,0.869130869130869,33.7663320786087
1743284721884,17:45:21.884,-1,1796.336996337,0.868686868686869,33.7663320786087
1743284721904,17:45:21.904,-1,1786.81318681319,0.869130869130869,33.7663320786087
1743284721923,17:45:21.923,-1,1772.16117216117,0.868686868686869,33.7663320786087
1743284721943,17:45:21.943,-1,1742.12454212454,0.868242868242868,33.7663320786087
1743284721962,17:45:21.962,-1,1692.30769230769,0.868242868242868,33.7663320786087
1743284721982,17:45:21.982,-1,1621.97802197802,0.867798867798868,33.7663320786087
1743284722001,17:45:22.001,-1,1558.97435897436,0.867798867798868,33.7663320786087
1743284722021,17:45:22.021,-1,1500.3663003663,0.867798867798868,33.7663320786087
1743284722040,17:45:22.040,-1,1448.35164835165,0.867798867798868,33.7663320786087
1743284722060,17:45:22.060,-1,1408.05860805861,0.867354867354867,33.7663320786087
1743284722079,17:45:22.079,-1,1377.28937728938,0.866910866910867,33.7663320786087
1743284722099,17:45:22.099,-1,1367.76556776557,0.866466866466866,33.7663320786087
1743284722118,17:45:22.118,-1,1364.10256410256,0.866466866466866,33.7663320786087
1743284722138,17:45:22.138,-1,1359.70695970696,0.866466866466866,33.7663320786087
1743284722157,17:45:22.157,-1,1357.50915750916,0.866022866022866,33.7663320786087
1743284722177,17:45:22.177,-1,1345.05494505494,0.865578865578866,33.7663320786087
1743284722196,17:45:22.196,-1,1317.94871794872,0.865578865578866,33.7663320786087
1743284722216,17:45:22.216,-1,1290.84249084249,0.865578865578866,33.7663320786087
1743284722235,17:45:22.235,-1,1274.72527472527,0.865134865134865,33.7713350187987
1743284722255,17:45:22.255,-1,1260.80586080586,0.865134865134865,33.7713350187987
1743284722274,17:45:22.274,-1,1246.15384615385,0.864690864690865,33.7713350187987
1743284722294,17:45:22.294,-1,1211.72161172161,0.864690864690865,33.7713350187987
1743284722313,17:45:22.313,-1,1191.20879120879,0.864690864690865,33.7713350187987
1743284722333,17:45:22.333,-1,1194.87179487179,0.864246864246864,33.7713350187987
1743284722352,17:45:22.352,-1,1200.7326007326,0.864690864690865,33.7713350187987
1743284722372,17:45:22.372,-1,1189.01098901099,0.864246864246864,33.7713350187987
1743284722391,17:45:22.391,-1,1176.55677655678,0.863802863802864,33.7713350187987
1743284722411,17:45:22.411,-1,1161.90476190476,0.863358863358863,33.7713350187987
1743284722430,17:45:22.430,-1,1150.18315018315,0.863358863358863,33.7713350187987
1743284722450,17:45:22.450,-1,1155.31135531136,0.863358863358863,33.7713350187987
1743284722469,17:45:22.469,-1,1177.28937728938,0.863358863358863,33.7713350187987
1743284722489,17:45:22.489,-1,1246.88644688645,0.862914862914863,33.7713350187987
1743284722508,17:45:22.508,-1,1366.30036630037,0.862914862914863,33.7713350187987
1743284722528,17:45:22.528,-1,1505.49450549451,0.862914862914863,33.7713350187987
1743284722547,17:45:22.547,-1,1627.83882783883,0.862470862470862,33.7713350187987
1743284722567,17:45:22.567,-1,1723.80952380952,0.862470862470862,33.7713350187987
1743284722586,17:45:22.586,-1,1791.94139194139,0.862026862026862,33.7713350187987
1743284722606,17:45:22.606,-1,1832.23443223443,0.862026862026862,33.7713350187987
1743284722625,17:45:22.625,-1,1863.00366300366,0.861582861582862,33.7713350187987
1743284722645,17:45:22.645,-1,1875.45787545788,0.861582861582862,33.7713350187987
1743284722664,17:45:22.664,-1,1849.81684981685,0.861582861582862,33.7713350187987
1743284722684,17:45:22.684,-1,1826.37362637363,0.861582861582862,33.7713350187987
1743284722703,17:45:22.703,-1,1802.1978021978,0.861582861582862,33.7713350187987
1743284722723,17:45:22.723,-1,1750.91575091575,0.861138861138861,33.7713350187987
1743284722742,17:45:22.742,-1,1669.59706959707,0.861138861138861,33.7713350187987
1743284722762,17:45:22.762,-1,1578.02197802198,0.860694860694861,33.7713350187987
1743284722781,17:45:22.781,-1,1502.5641025641,0.861138861138861,33.7713350187987
1743284722801,17:45:22.801,-1,1449.08424908425,0.861138861138861,33.7713350187987
1743284722820,17:45:22.820,-1,1424.17582417582,0.860694860694861,33.7713350187987
1743284722840,17:45:22.840,-1,1405.12820512821,0.860694860694861,33.7713350187987
1743284722859,17:45:22.859,-1,1386.08058608059,0.86025086025086,33.7713350187987
1743284722879,17:45:22.879,-1,1369.23076923077,0.86025086025086,33.7713350187987
1743284722898,17:45:22.898,-1,1363.36996336996,0.86025086025086,33.7713350187987
1743284722918,17:45:22.918,-1,1351.64835164835,0.86025086025086,33.7713350187987
1743284722937,17:45:22.937,-1,1338.46153846154,0.86025086025086,33.7713350187987
1743284722957,17:45:22.957,-1,1308.42490842491,0.85980685980686,33.7713350187987
1743284722976,17:45:22.976,-1,1284.24908424908,0.85980685980686,33.7713350187987
1743284722996,17:45:22.996,-1,1276.92307692308,0.85980685980686,33.7713350187987
1743284723015,17:45:23.015,-1,1247.61904761905,0.85980685980686,33.7713350187987
1743284723035,17:45:23.035,-1,1215.38461538462,0.85980685980686,33.7713350187987
1743284723054,17:45:23.054,-1,1201.4652014652,0.859362859362859,33.7713350187987
1743284723074,17:45:23.074,-1,1201.4652014652,0.858918858918859,33.7713350187987
1743284723093,17:45:23.093,-1,1186.08058608059,0.858918858918859,33.7713350187987
1743284723113,17:45:23.113,-1,1180.21978021978,0.858474858474858,33.7713350187987
1743284723132,17:45:23.132,-1,1167.76556776557,0.858918858918859,33.7713350187987
1743284723152,17:45:23.152,-1,1152.38095238095,0.858918858918859,33.7713350187987
1743284723171,17:45:23.171,-1,1136.99633699634,0.858474858474858,33.7713350187987
1743284723191,17:45:23.191,-1,1136.99633699634,0.858474858474858,33.7713350187987
1743284723210,17:45:23.210,-1,1142.85714285714,0.858030858030858,33.7713350187987
1743284723230,17:45:23.230,-1,1156.77655677656,0.858030858030858,33.7713350187987
1743284723249,17:45:23.249,-1,1196.336996337,0.858030858030858,33.7713350187987
1743284723269,17:45:23.269,-1,1289.37728937729,0.857586857586857,33.7713350187987
1743284723288,17:45:23.288,-1,1434.43223443223,0.857586857586857,33.7713350187987
1743284723308,17:45:23.308,-1,1569.23076923077,0.857142857142857,33.7713350187987
1743284723327,17:45:23.327,-1,1692.30769230769,0.856698856698857,33.7713350187987
1743284723347,17:45:23.347,-1,1785.34798534799,0.857142857142857,33.7713350187987
1743284723366,17:45:23.366,-1,1833.69963369963,0.856698856698857,33.7713350187987
1743284723386,17:45:23.386,-1,1855.67765567766,0.857142857142857,33.7713350187987
1743284723405,17:45:23.405,-1,1857.87545787546,0.856698856698857,33.7713350187987
1743284723425,17:45:23.425,-1,1851.28205128205,0.856698856698857,33.7713350187987
1743284723444,17:45:23.444,-1,1835.16483516484,0.856254856254856,33.7713350187987
1743284723464,17:45:23.464,-1,1801.4652014652,0.856254856254856,33.7713350187987
1743284723483,17:45:23.483,-1,1743.58974358974,0.856254856254856,33.7713350187987
1743284723503,17:45:23.503,-1,1660.80586080586,0.855810855810856,33.7713350187987
1743284723522,17:45:23.522,-1,1569.96336996337,0.856254856254856,33.7713350187987
1743284723542,17:45:23.542,-1,1504.7619047619,0.855810855810856,33.7713350187987
1743284723561,17:45:23.561,-1,1452.01465201465,0.855366855366855,33.7713350187987
1743284723581,17:45:23.581,-1,1410.25641025641,0.855366855366855,33.7713350187987
1743284723600,17:45:23.600,-1,1387.54578754579,0.855366855366855,33.7713350187987
1743284723620,17:45:23.620,-1,1365.56776556777,0.855366855366855,33.7713350187987
1743284723639,17:45:23.639,-1,1338.46153846154,0.855366855366855,33.7713350187987
1743284723659,17:45:23.659,-1,1326.00732600733,0.854922854922855,33.7713350187987
1743284723678,17:45:23.678,-1,1315.01831501831,0.854922854922855,33.7713350187987
1743284723698,17:45:23.698,-1,1302.5641025641,0.855366855366855,33.7713350187987
1743284723717,17:45:23.717,-1,1284.98168498168,0.854922854922855,33.7713350187987
1743284723737,17:45:23.737,-1,1259.34065934066,0.854922854922855,33.7713350187987
1743284723756,17:45:23.756,-1,1230.76923076923,0.854922854922855,33.7713350187987
1743284723776,17:45:23.776,-1,1205.12820512821,0.854478854478854,33.7713350187987
1743284723795,17:45:23.795,-1,1186.08058608059,0.854478854478854,33.7713350187987
1743284723815,17:45:23.815,-1,1169.23076923077,0.854034854034854,33.7713350187987
1743284723834,17:45:23.834,-1,1158.97435897436,0.854478854478854,33.7713350187987
1743284723854,17:45:23.854,-1,1146.52014652015,0.854478854478854,33.7713350187987
1743284723873,17:45:23.873,-1,1139.92673992674,0.854034854034854,33.7713350187987
1743284723893,17:45:23.893,-1,1125.27472527473,0.854034854034854,33.7713350187987
1743284723912,17:45:23.912,-1,1120.87912087912,0.853590853590854,33.7713350187987
1743284723932,17:45:23.932,-1,1131.13553113553,0.853590853590854,33.7713350187987
1743284723951,17:45:23.951,-1,1130.40293040293,0.853590853590854,33.7713350187987
1743284723971,17:45:23.971,-1,1134.06593406593,0.854034854034854,33.7713350187987
1743284723990,17:45:23.990,-1,1140.65934065934,0.853590853590854,33.7713350187987
1743284724010,17:45:24.010,-1,1147.98534798535,0.853590853590854,33.7713350187987
1743284724029,17:45:24.029,-1,1170.69597069597,0.853590853590854,33.7713350187987
1743284724049,17:45:24.049,-1,1235.89743589744,0.853146853146853,33.7713350187987
1743284724068,17:45:24.068,-1,1342.85714285714,0.853146853146853,33.7713350187987
1743284724088,17:45:24.088,-1,1471.79487179487,0.853146853146853,33.7713350187987
1743284724107,17:45:24.107,-1,1592.67399267399,0.852702852702853,33.7713350187987
1743284724127,17:45:24.127,-1,1693.04029304029,0.852702852702853,33.7713350187987
1743284724146,17:45:24.146,-1,1756.04395604396,0.852702852702853,33.7713350187987
1743284724166,17:45:24.166,-1,1780.95238095238,0.852702852702853,33.7713350187987
1743284724185,17:45:24.185,-1,1771.42857142857,0.852702852702853,33.7713350187987
1743284724205,17:45:24.205,-1,1764.10256410256,0.852702852702853,33.7713350187987
1743284724224,17:45:24.224,-1,1739.92673992674,0.852258852258852,33.7663320786087
1743284724244,17:45:24.244,-1,1704.0293040293,0.851814851814852,33.7663320786087
1743284724263,17:45:24.263,-1,1657.87545787546,0.851814851814852,33.7663320786087
1743284724283,17:45:24.283,-1,1591.94139194139,0.851814851814852,33.7663320786087
1743284724302,17:45:24.302,-1,1511.35531135531,0.851370851370851,33.7663320786087
1743284724322,17:45:24.322,-1,1431.50183150183,0.851370851370851,33.7663320786087
1743284724341,17:45:24.341,-1,1383.15018315018,0.851370851370851,33.7663320786087
1743284724361,17:45:24.361,-1,1353.84615384615,0.850926850926851,33.7663320786087
1743284724380,17:45:24.380,-1,1344.32234432234,0.85048285048285,33.7663320786087
1743284724400,17:45:24.400,-1,1330.40293040293,0.850926850926851,33.7663320786087
1743284724419,17:45:24.419,-1,1329.67032967033,0.85048285048285,33.7663320786087
1743284724439,17:45:24.439,-1,1335.53113553114,0.85048285048285,33.7663320786087
1743284724458,17:45:24.458,-1,1320.87912087912,0.84959484959485,33.7663320786087
1743284724478,17:45:24.478,-1,1296.7032967033,0.84959484959485,33.7663320786087
1743284724497,17:45:24.497,-1,1257.87545787546,0.84959484959485,33.7663320786087
1743284724517,17:45:24.517,-1,1229.30402930403,0.84959484959485,33.7663320786087
1743284724536,17:45:24.536,-1,1222.71062271062,0.849150849150849,33.7663320786087
1743284724556,17:45:24.556,-1,1208.05860805861,0.849150849150849,33.7663320786087
1743284724575,17:45:24.575,-1,1180.95238095238,0.848706848706849,33.7663320786087
1743284724595,17:45:24.595,-1,1156.04395604396,0.848706848706849,33.7663320786087
1743284724614,17:45:24.614,-1,1146.52014652015,0.848706848706849,33.7663320786087
1743284724634,17:45:24.634,-1,1137.72893772894,0.848706848706849,33.7663320786087
1743284724653,17:45:24.653,-1,1131.86813186813,0.848706848706849,33.7663320786087
1743284724673,17:45:24.673,-1,1128.93772893773,0.848262848262848,33.7663320786087
1743284724692,17:45:24.692,-1,1130.40293040293,0.847818847818848,33.7663320786087
1743284724712,17:45:24.712,-1,1120.87912087912,0.847374847374847,33.7663320786087
1743284724731,17:45:24.731,-1,1113.55311355311,0.847374847374847,33.7663320786087
1743284724751,17:45:24.751,-1,1130.40293040293,0.847374847374847,33.7663320786087
1743284724770,17:45:24.770,-1,1191.20879120879,0.847374847374847,33.7663320786087
1743284724790,17:45:24.790,-1,1304.7619047619,0.846930846930847,33.7663320786087
1743284724809,17:45:24.809,-1,1436.63003663004,0.846486846486846,33.7663320786087
1743284724829,17:45:24.829,-1,1531.86813186813,0.846486846486846,33.7663320786087
1743284724848,17:45:24.848,-1,1606.59340659341,0.846486846486846,33.7663320786087
1743284724868,17:45:24.868,-1,1652.74725274725,0.846486846486846,33.7663320786087
1743284724887,17:45:24.887,-1,1656.41025641026,0.846042846042846,33.7663320786087
1743284724907,17:45:24.907,-1,1638.09523809524,0.846042846042846,33.7663320786087
1743284724926,17:45:24.926,-1,1612.45421245421,0.845598845598846,33.7663320786087
1743284724946,17:45:24.946,-1,1602.1978021978,0.845598845598846,33.7663320786087
1743284724965,17:45:24.965,-1,1590.47619047619,0.845598845598846,33.7663320786087
1743284724985,17:45:24.985,-1,1554.57875457875,0.845154845154845,33.7663320786087
1743284725004,17:45:25.004,-1,1496.7032967033,0.845154845154845,33.7663320786087
1743284725024,17:45:25.024,-1,1427.10622710623,0.844710844710845,33.7663320786087
1743284725043,17:45:25.043,-1,1369.23076923077,0.844266844266844,33.7663320786087
1743284725063,17:45:25.063,-1,1335.53113553114,0.844266844266844,33.7663320786087
1743284725082,17:45:25.082,-1,1306.22710622711,0.844266844266844,33.7663320786087
1743284725102,17:45:25.102,-1,1287.17948717949,0.844266844266844,33.7663320786087
1743284725121,17:45:25.121,-1,1269.59706959707,0.843822843822844,33.7663320786087
1743284725141,17:45:25.141,-1,1253.47985347985,0.843822843822844,33.7663320786087
1743284725160,17:45:25.160,-1,1237.36263736264,0.843378843378843,33.7663320786087
1743284725180,17:45:25.180,-1,1235.16483516484,0.843378843378843,33.7663320786087
1743284725199,17:45:25.199,-1,1232.96703296703,0.842934842934843,33.7663320786087
1743284725219,17:45:25.219,-1,1221.24542124542,0.842934842934843,33.7713350187987
1743284725238,17:45:25.238,-1,1194.87179487179,0.842490842490842,33.7713350187987
1743284725258,17:45:25.258,-1,1169.96336996337,0.842046842046842,33.7713350187987
1743284725277,17:45:25.277,-1,1155.31135531136,0.842046842046842,33.7713350187987
1743284725297,17:45:25.297,-1,1144.32234432234,0.842046842046842,33.7713350187987
1743284725316,17:45:25.316,-1,1130.40293040293,0.842046842046842,33.7713350187987
1743284725336,17:45:25.336,-1,1114.28571428571,0.842046842046842,33.7713350187987
1743284725355,17:45:25.355,-1,1113.55311355311,0.841602841602842,33.7713350187987
1743284725375,17:45:25.375,-1,1115.01831501831,0.841158841158841,33.7713350187987
1743284725394,17:45:25.394,-1,1115.75091575092,0.841158841158841,33.7713350187987
1743284725414,17:45:25.414,-1,1116.48351648352,0.840714840714841,33.7713350187987
1743284725433,17:45:25.433,-1,1125.27472527473,0.841158841158841,33.7713350187987
1743284725453,17:45:25.453,-1,1126.73992673993,0.840714840714841,33.7713350187987
1743284725472,17:45:25.472,-1,1144.32234432234,0.840714840714841,33.7713350187987
1743284725492,17:45:25.492,-1,1191.94139194139,0.84027084027084,33.7713350187987
1743284725511,17:45:25.511,-1,1273.26007326007,0.84027084027084,33.7713350187987
1743284725531,17:45:25.531,-1,1389.01098901099,0.84027084027084,33.7713350187987
1743284725550,17:45:25.550,-1,1480.58608058608,0.84027084027084,33.7713350187987
1743284725570,17:45:25.570,-1,1544.32234432234,0.83982683982684,33.7713350187987
1743284725589,17:45:25.589,-1,1600.7326007326,0.83982683982684,33.7713350187987
1743284725609,17:45:25.609,-1,1632.96703296703,0.839382839382839,33.7713350187987
1743284725628,17:45:25.628,-1,1642.49084249084,0.839382839382839,33.7713350187987
1743284725648,17:45:25.648,-1,1641.75824175824,0.838938838938839,33.7713350187987
1743284725667,17:45:25.667,-1,1626.37362637363,0.838938838938839,33.7713350187987
1743284725687,17:45:25.687,-1,1582.41758241758,0.838938838938839,33.7713350187987
1743284725706,17:45:25.706,-1,1532.60073260073,0.838050838050838,33.7713350187987
1743284725726,17:45:25.726,-1,1479.85347985348,0.838050838050838,33.7713350187987
1743284725745,17:45:25.745,-1,1424.90842490842,0.838050838050838,33.7713350187987
1743284725765,17:45:25.765,-1,1367.76556776557,0.838050838050838,33.7713350187987
1743284725784,17:45:25.784,-1,1316.48351648352,0.837606837606838,33.7713350187987
1743284725804,17:45:25.804,-1,1288.64468864469,0.837606837606838,33.7713350187987
1743284725823,17:45:25.823,-1,1284.24908424908,0.837606837606838,33.7713350187987
1743284725843,17:45:25.843,-1,1285.71428571429,0.837162837162837,33.7713350187987
1743284725862,17:45:25.862,-1,1275.45787545788,0.836718836718837,33.7713350187987
1743284725882,17:45:25.882,-1,1256.41025641026,0.836718836718837,33.7713350187987
1743284725901,17:45:25.901,-1,1239.56043956044,0.836718836718837,33.7713350187987
1743284725921,17:45:25.921,-1,1221.97802197802,0.836274836274836,33.7713350187987
1743284725940,17:45:25.940,-1,1208.05860805861,0.836274836274836,33.7713350187987
1743284725960,17:45:25.960,-1,1190.47619047619,0.835830835830836,33.7713350187987
1743284725979,17:45:25.979,-1,1167.76556776557,0.835386835386835,33.7713350187987
1743284725999,17:45:25.999,-1,1142.12454212454,0.835830835830836,33.7713350187987
1743284726018,17:45:26.018,-1,1123.80952380952,0.835386835386835,33.7713350187987
1743284726038,17:45:26.038,-1,1123.07692307692,0.834942834942835,33.7713350187987
1743284726057,17:45:26.057,-1,1135.53113553114,0.834498834498834,33.7713350187987
1743284726077,17:45:26.077,-1,1138.46153846154,0.834498834498834,33.7713350187987
1743284726096,17:45:26.096,-1,1135.53113553114,0.834054834054834,33.7713350187987
1743284726116,17:45:26.116,-1,1122.34432234432,0.834498834498834,33.7713350187987
1743284726135,17:45:26.135,-1,1120.14652014652,0.834054834054834,33.7713350187987
1743284726155,17:45:26.155,-1,1124.54212454212,0.834054834054834,33.7713350187987
1743284726174,17:45:26.174,-1,1127.47252747253,0.833166833166833,33.7713350187987
1743284726194,17:45:26.194,-1,1122.34432234432,0.833166833166833,33.7713350187987
1743284726213,17:45:26.213,-1,1154.57875457875,0.833166833166833,33.7713350187987
1743284726233,17:45:26.233,-1,1219.04761904762,0.833166833166833,33.7713350187987
1743284726252,17:45:26.252,-1,1303.2967032967,0.833166833166833,33.7713350187987
1743284726272,17:45:26.272,-1,1379.48717948718,0.832722832722833,33.7713350187987
1743284726291,17:45:26.291,-1,1449.08424908425,0.832278832278832,33.7713350187987
1743284726311,17:45:26.311,-1,1509.15750915751,0.832278832278832,33.7713350187987
1743284726330,17:45:26.330,-1,1534.06593406593,0.832278832278832,33.7713350187987
1743284726350,17:45:26.350,-1,1568.49816849817,0.832278832278832,33.7713350187987
1743284726369,17:45:26.369,-1,1592.67399267399,0.831834831834832,33.7713350187987
1743284726389,17:45:26.389,-1,1602.9304029304,0.831834831834832,33.7713350187987
1743284726408,17:45:26.408,-1,1594.87179487179,0.831834831834832,33.7713350187987
1743284726428,17:45:26.428,-1,1580.21978021978,0.831390831390831,33.7713350187987
1743284726447,17:45:26.447,-1,1553.11355311355,0.831390831390831,33.7713350187987
1743284726467,17:45:26.467,-1,1499.6336996337,0.831834831834832,33.7713350187987
1743284726486,17:45:26.486,-1,1430.76923076923,0.831390831390831,33.7713350187987
1743284726506,17:45:26.506,-1,1375.09157509157,0.831390831390831,33.7713350187987
1743284726525,17:45:26.525,-1,1345.78754578755,0.830946830946831,33.7713350187987
1743284726545,17:45:26.545,-1,1316.48351648352,0.830502830502831,33.7713350187987
1743284726564,17:45:26.564,-1,1306.22710622711,0.830946830946831,33.7713350187987
1743284726584,17:45:26.584,-1,1296.7032967033,0.830946830946831,33.7713350187987
1743284726603,17:45:26.603,-1,1288.64468864469,0.830946830946831,33.7713350187987
1743284726623,17:45:26.623,-1,1265.93406593407,0.830502830502831,33.7713350187987
1743284726642,17:45:26.642,-1,1243.95604395604,0.83005883005883,33.7713350187987
1743284726662,17:45:26.662,-1,1221.24542124542,0.82961482961483,33.7713350187987
1743284726681,17:45:26.681,-1,1205.12820512821,0.83005883005883,33.7713350187987
1743284726701,17:45:26.701,-1,1205.86080586081,0.83005883005883,33.7713350187987
1743284726720,17:45:26.720,-1,1204.3956043956,0.83005883005883,33.7713350187987
1743284726740,17:45:26.740,-1,1189.74358974359,0.82961482961483,33.7713350187987
1743284726759,17:45:26.759,-1,1175.09157509158,0.82961482961483,33.7713350187987
1743284726779,17:45:26.779,-1,1163.36996336996,0.82961482961483,33.7713350187987
1743284726798,17:45:26.798,-1,1161.17216117216,0.82961482961483,33.7713350187987
1743284726818,17:45:26.818,-1,1156.77655677656,0.82961482961483,33.7713350187987
1743284726837,17:45:26.837,-1,1145.78754578755,0.83005883005883,33.7713350187987
1743284726857,17:45:26.857,-1,1134.06593406593,0.82961482961483,33.7713350187987
1743284726876,17:45:26.876,-1,1131.13553113553,0.82961482961483,33.7713350187987
1743284726896,17:45:26.896,-1,1132.60073260073,0.83005883005883,33.7713350187987
1743284726915,17:45:26.915,-1,1130.40293040293,0.83005883005883,33.7713350187987
1743284726935,17:45:26.935,-1,1129.67032967033,0.83005883005883,33.7713350187987
1743284726954,17:45:26.954,-1,1150.91575091575,0.830502830502831,33.7713350187987
1743284726974,17:45:26.974,-1,1191.94139194139,0.83005883005883,33.7713350187987
1743284726993,17:45:26.993,-1,1266.66666666667,0.83005883005883,33.7713350187987
1743284727013,17:45:27.013,-1,1374.35897435897,0.830502830502831,33.7713350187987
1743284727032,17:45:27.032,-1,1475.45787545788,0.830502830502831,33.7713350187987
1743284727052,17:45:27.052,-1,1550.91575091575,0.830946830946831,33.7713350187987
1743284727071,17:45:27.071,-1,1598.5347985348,0.830946830946831,33.7713350187987
1743284727091,17:45:27.091,-1,1615.38461538462,0.830502830502831,33.7713350187987
1743284727110,17:45:27.110,-1,1627.83882783883,0.830946830946831,33.7713350187987
1743284727130,17:45:27.130,-1,1626.37362637363,0.830946830946831,33.7713350187987
1743284727149,17:45:27.149,-1,1615.38461538462,0.830946830946831,33.7713350187987
1743284727169,17:45:27.169,-1,1583.88278388278,0.830946830946831,33.7713350187987
1743284727188,17:45:27.188,-1,1540.65934065934,0.830502830502831,33.7713350187987
1743284727208,17:45:27.208,-1,1495.9706959707,0.830502830502831,33.7713350187987
1743284727227,17:45:27.227,-1,1450.54945054945,0.83005883005883,33.7713350187987
1743284727247,17:45:27.247,-1,1408.79120879121,0.830502830502831,33.7713350187987
1743284727266,17:45:27.266,-1,1361.90476190476,0.830946830946831,33.7713350187987
1743284727286,17:45:27.286,-1,1330.40293040293,0.830946830946831,33.7713350187987
1743284727305,17:45:27.305,-1,1318.68131868132,0.830946830946831,33.7713350187987
1743284727325,17:45:27.325,-1,1315.01831501831,0.830946830946831,33.7713350187987
1743284727344,17:45:27.344,-1,1314.28571428571,0.830502830502831,33.7713350187987
1743284727364,17:45:27.364,-1,1312.82051282051,0.830946830946831,33.7713350187987
1743284727383,17:45:27.383,-1,1283.51648351648,0.830946830946831,33.7713350187987
1743284727403,17:45:27.403,-1,1267.39926739927,0.830946830946831,33.7713350187987
1743284727422,17:45:27.422,-1,1248.35164835165,0.830946830946831,33.7713350187987
1743284727442,17:45:27.442,-1,1232.23443223443,0.830946830946831,33.7713350187987
1743284727461,17:45:27.461,-1,1229.30402930403,0.830946830946831,33.7713350187987
1743284727481,17:45:27.481,-1,1232.96703296703,0.830946830946831,33.7713350187987
1743284727500,17:45:27.500,-1,1231.50183150183,0.830946830946831,33.7713350187987
1743284727520,17:45:27.520,-1,1218.31501831502,0.830946830946831,33.7713350187987
1743284727539,17:45:27.539,-1,1197.0695970696,0.831390831390831,33.7713350187987
1743284727559,17:45:27.559,-1,1186.08058608059,0.831390831390831,33.7713350187987
1743284727578,17:45:27.578,-1,1186.08058608059,0.831390831390831,33.7713350187987
1743284727598,17:45:27.598,-1,1189.74358974359,0.831390831390831,33.7713350187987
1743284727617,17:45:27.617,-1,1195.6043956044,0.831390831390831,33.7713350187987
1743284727637,17:45:27.637,-1,1191.20879120879,0.831390831390831,33.7713350187987
1743284727656,17:45:27.656,-1,1177.28937728938,0.831390831390831,33.7713350187987
1743284727676,17:45:27.676,-1,1157.50915750916,0.830946830946831,33.7713350187987
1743284727695,17:45:27.695,-1,1178.75457875458,0.830946830946831,33.7713350187987
1743284727715,17:45:27.715,-1,1230.03663003663,0.830946830946831,33.7713350187987
1743284727734,17:45:27.734,-1,1314.28571428571,0.831390831390831,33.7713350187987
1743284727754,17:45:27.754,-1,1408.79120879121,0.830946830946831,33.7713350187987
1743284727773,17:45:27.773,-1,1477.65567765568,0.830946830946831,33.7713350187987
1743284727793,17:45:27.793,-1,1537.72893772894,0.830946830946831,33.7713350187987
1743284727812,17:45:27.812,-1,1592.67399267399,0.830946830946831,33.7713350187987
1743284727832,17:45:27.832,-1,1628.57142857143,0.830946830946831,33.7713350187987
1743284727851,17:45:27.851,-1,1643.95604395604,0.830946830946831,33.7713350187987
1743284727871,17:45:27.871,-1,1644.68864468864,0.830946830946831,33.7713350187987
1743284727890,17:45:27.890,-1,1633.69963369963,0.830502830502831,33.7713350187987
1743284727910,17:45:27.910,-1,1613.18681318681,0.830502830502831,33.7713350187987
1743284727929,17:45:27.929,-1,1607.32600732601,0.830502830502831,33.7713350187987
1743284727949,17:45:27.949,-1,1581.68498168498,0.830946830946831,33.7713350187987
1743284727968,17:45:27.968,-1,1527.47252747253,0.831390831390831,33.7713350187987
1743284727988,17:45:27.988,-1,1472.52747252747,0.831390831390831,33.7713350187987
1743284728007,17:45:28.007,-1,1438.09523809524,0.830946830946831,33.7713350187987
1743284728027,17:45:28.027,-1,1419.04761904762,0.831390831390831,33.7713350187987
1743284728046,17:45:28.046,-1,1391.94139194139,0.831390831390831,33.7713350187987
1743284728066,17:45:28.066,-1,1377.28937728938,0.831390831390831,33.7713350187987
1743284728085,17:45:28.085,-1,1368.49816849817,0.831390831390831,33.7713350187987
1743284728105,17:45:28.105,-1,1355.31135531136,0.831834831834832,33.7713350187987
1743284728124,17:45:28.124,-1,1350.18315018315,0.831390831390831,33.7713350187987
1743284728144,17:45:28.144,-1,1346.52014652015,0.831834831834832,33.7713350187987
1743284728163,17:45:28.163,-1,1338.46153846154,0.832278832278832,33.7713350187987
1743284728183,17:45:28.183,-1,1332.60073260073,0.832722832722833,33.7713350187987
1743284728202,17:45:28.202,-1,1315.01831501831,0.832722832722833,33.7613291325979
1743284728222,17:45:28.222,-1,1296.7032967033,0.832278832278832,33.7613291325979
1743284728241,17:45:28.241,-1,1282.78388278388,0.832278832278832,33.7613291325979
1743284728261,17:45:28.261,-1,1274.72527472527,0.831834831834832,33.7613291325979
1743284728280,17:45:28.280,-1,1268.13186813187,0.831834831834832,33.7613291325979
1743284728300,17:45:28.300,-1,1260.80586080586,0.831834831834832,33.7613291325979
1743284728319,17:45:28.319,-1,1253.47985347985,0.831834831834832,33.7613291325979
1743284728339,17:45:28.339,-1,1232.96703296703,0.831390831390831,33.7613291325979
1743284728358,17:45:28.358,-1,1224.17582417582,0.830946830946831,33.7613291325979
1743284728378,17:45:28.378,-1,1227.83882783883,0.830946830946831,33.7613291325979
1743284728397,17:45:28.397,-1,1266.66666666667,0.830946830946831,33.7613291325979
1743284728417,17:45:28.417,-1,1353.84615384615,0.831390831390831,33.7613291325979
1743284728436,17:45:28.436,-1,1459.34065934066,0.831390831390831,33.7613291325979
1743284728456,17:45:28.456,-1,1565.56776556777,0.830946830946831,33.7613291325979
1743284728475,17:45:28.475,-1,1659.34065934066,0.830946830946831,33.7613291325979
1743284728495,17:45:28.495,-1,1724.54212454212,0.830502830502831,33.7613291325979
1743284728514,17:45:28.514,-1,1767.76556776557,0.830502830502831,33.7613291325979
1743284728534,17:45:28.534,-1,1798.5347985348,0.830502830502831,33.7613291325979
1743284728553,17:45:28.553,-1,1819.04761904762,0.830502830502831,33.7613291325979
1743284728573,17:45:28.573,-1,1819.04761904762,0.83005883005883,33.7613291325979
1743284728592,17:45:28.592,-1,1810.25641025641,0.82961482961483,33.7613291325979
1743284728612,17:45:28.612,-1,1773.62637362637,0.82961482961483,33.7613291325979
1743284728631,17:45:28.631,-1,1722.34432234432,0.82961482961483,33.7613291325979
1743284728651,17:45:28.651,-1,1657.87545787546,0.82961482961483,33.7613291325979
1743284728670,17:45:28.670,-1,1600.7326007326,0.829170829170829,33.7613291325979
1743284728690,17:45:28.690,-1,1556.77655677656,0.829170829170829,33.7613291325979
1743284728709,17:45:28.709,-1,1528.20512820513,0.829170829170829,33.7613291325979
1743284728729,17:45:28.729,-1,1512.82051282051,0.828726828726829,33.7613291325979
1743284728748,17:45:28.748,-1,1502.5641025641,0.828726828726829,33.7613291325979
1743284728768,17:45:28.768,-1,1500.3663003663,0.828726828726829,33.7613291325979
1743284728787,17:45:28.787,-1,1487.17948717949,0.828726828726829,33.7613291325979
1743284728807,17:45:28.807,-1,1458.60805860806,0.828282828282828,33.7613291325979
1743284728826,17:45:28.826,-1,1437.36263736264,0.828282828282828,33.7613291325979
1743284728846,17:45:28.846,-1,1425.64102564103,0.828282828282828,33.7613291325979
1743284728865,17:45:28.865,-1,1411.72161172161,0.828282828282828,33.7613291325979
1743284728885,17:45:28.885,-1,1394.13919413919,0.828282828282828,33.7613291325979
1743284728904,17:45:28.904,-1,1367.76556776557,0.828282828282828,33.7613291325979
1743284728924,17:45:28.924,-1,1342.85714285714,0.827838827838828,33.7613291325979
1743284728943,17:45:28.943,-1,1326.73992673993,0.827394827394827,33.7613291325979
1743284728963,17:45:28.963,-1,1316.48351648352,0.827394827394827,33.7613291325979
1743284728982,17:45:28.982,-1,1303.2967032967,0.827838827838828,33.7613291325979
1743284729002,17:45:29.002,-1,1301.0989010989,0.827394827394827,33.7613291325979
1743284729021,17:45:29.021,-1,1291.57509157509,0.827394827394827,33.7613291325979
1743284729041,17:45:29.041,-1,1279.85347985348,0.827394827394827,33.7613291325979
1743284729060,17:45:29.060,-1,1273.99267399267,0.827394827394827,33.7613291325979
1743284729080,17:45:29.080,-1,1293.77289377289,0.826950826950827,33.7613291325979
1743284729099,17:45:29.099,-1,1375.09157509157,0.826506826506826,33.7613291325979
1743284729119,17:45:29.119,-1,1501.8315018315,0.826506826506826,33.7613291325979
1743284729138,17:45:29.138,-1,1646.15384615385,0.826506826506826,33.7613291325979
1743284729158,17:45:29.158,-1,1783.88278388278,0.826062826062826,33.7613291325979
1743284729177,17:45:29.177,-1,1904.0293040293,0.826062826062826,33.7613291325979
1743284729197,17:45:29.197,-1,1975.82417582418,0.826062826062826,33.7613291325979
1743284729216,17:45:29.216,-1,2013.91941391941,0.826062826062826,33.7613291325979
1743284729236,17:45:29.236,-1,2030.76923076923,0.826062826062826,33.7613291325979
1743284729255,17:45:29.255,-1,2026.37362637363,0.826062826062826,33.7613291325979
1743284729275,17:45:29.275,-1,1999.2673992674,0.825174825174825,33.7613291325979
1743284729294,17:45:29.294,-1,1973.62637362637,0.825174825174825,33.7613291325979
1743284729314,17:45:29.314,-1,1934.06593406593,0.825174825174825,33.7613291325979
1743284729333,17:45:29.333,-1,1863.73626373626,0.825174825174825,33.7613291325979
1743284729353,17:45:29.353,-1,1772.16117216117,0.824730824730825,33.7613291325979
1743284729372,17:45:29.372,-1,1692.30769230769,0.824730824730825,33.7613291325979
1743284729392,17:45:29.392,-1,1632.96703296703,0.824730824730825,33.7613291325979
1743284729411,17:45:29.411,-1,1591.20879120879,0.824286824286824,33.7613291325979
1743284729431,17:45:29.431,-1,1556.77655677656,0.824286824286824,33.7613291325979
1743284729450,17:45:29.450,-1,1535.53113553114,0.823842823842824,33.7613291325979
1743284729470,17:45:29.470,-1,1516.48351648352,0.823842823842824,33.7613291325979
1743284729489,17:45:29.489,-1,1497.4358974359,0.823842823842824,33.7613291325979
1743284729509,17:45:29.509,-1,1471.79487179487,0.823398823398823,33.7613291325979
1743284729528,17:45:29.528,-1,1443.95604395604,0.822954822954823,33.7613291325979
1743284729548,17:45:29.548,-1,1419.78021978022,0.823398823398823,33.7613291325979
1743284729567,17:45:29.567,-1,1403.663003663,0.823398823398823,33.7613291325979
1743284729587,17:45:29.587,-1,1389.74358974359,0.823398823398823,33.7613291325979
1743284729606,17:45:29.606,-1,1365.56776556777,0.822954822954823,33.7613291325979
1743284729626,17:45:29.626,-1,1331.13553113553,0.822510822510823,33.7613291325979
1743284729645,17:45:29.645,-1,1311.35531135531,0.822066822066822,33.7613291325979
1743284729665,17:45:29.665,-1,1289.37728937729,0.822066822066822,33.7613291325979
1743284729684,17:45:29.684,-1,1271.79487179487,0.821622821622822,33.7613291325979
1743284729704,17:45:29.704,-1,1257.87545787546,0.821622821622822,33.7613291325979
1743284729723,17:45:29.723,-1,1251.28205128205,0.821178821178821,33.7613291325979
1743284729743,17:45:29.743,-1,1238.09523809524,0.820734820734821,33.7613291325979
1743284729762,17:45:29.762,-1,1226.37362637363,0.820734820734821,33.7613291325979
1743284729782,17:45:29.782,-1,1219.04761904762,0.820734820734821,33.7613291325979
1743284729801,17:45:29.801,-1,1249.08424908425,0.82029082029082,33.7613291325979
1743284729821,17:45:29.821,-1,1346.52014652015,0.82029082029082,33.7613291325979
1743284729840,17:45:29.840,-1,1505.49450549451,0.81984681984682,33.7613291325979
1743284729860,17:45:29.860,-1,1686.44688644689,0.82029082029082,33.7613291325979
1743284729879,17:45:29.879,-1,1846.88644688645,0.82029082029082,33.7613291325979
1743284729899,17:45:29.899,-1,1964.10256410256,0.82029082029082,33.7613291325979
1743284729918,17:45:29.918,-1,2046.15384615385,0.82029082029082,33.7613291325979
1743284729938,17:45:29.938,-1,2090.84249084249,0.81984681984682,33.7613291325979
1743284729957,17:45:29.957,-1,2106.95970695971,0.819402819402819,33.7613291325979
1743284729977,17:45:29.977,-1,2112.82051282051,0.819402819402819,33.7613291325979
1743284729996,17:45:29.996,-1,2099.6336996337,0.819402819402819,33.7613291325979
1743284730016,17:45:30.016,-1,2057.14285714286,0.819402819402819,33.7613291325979
1743284730035,17:45:30.035,-1,2001.4652014652,0.818958818958819,33.7613291325979
1743284730055,17:45:30.055,-1,1903.2967032967,0.818514818514818,33.7613291325979
1743284730074,17:45:30.074,-1,1778.75457875458,0.818514818514818,33.7613291325979
1743284730094,17:45:30.094,-1,1674.72527472527,0.818514818514818,33.7613291325979
1743284730113,17:45:30.113,-1,1592.67399267399,0.818514818514818,33.7613291325979
1743284730133,17:45:30.133,-1,1520.87912087912,0.818514818514818,33.7613291325979
1743284730152,17:45:30.152,-1,1474.72527472527,0.818070818070818,33.7613291325979
1743284730172,17:45:30.172,-1,1445.42124542125,0.817626817626818,33.7613291325979
1743284730191,17:45:30.191,-1,1441.02564102564,0.817182817182817,33.7563261807663
1743284730211,17:45:30.211,-1,1428.57142857143,0.817182817182817,33.7563261807663
1743284730230,17:45:30.230,-1,1414.65201465201,0.817182817182817,33.7563261807663
1743284730250,17:45:30.250,-1,1400.7326007326,0.817182817182817,33.7563261807663
1743284730269,17:45:30.269,-1,1379.48717948718,0.816738816738817,33.7563261807663
1743284730289,17:45:30.289,-1,1352.38095238095,0.816294816294816,33.7563261807663
1743284730308,17:45:30.308,-1,1315.75091575092,0.815850815850816,33.7563261807663
1743284730328,17:45:30.328,-1,1286.44688644689,0.815406815406815,33.7563261807663
1743284730347,17:45:30.347,-1,1270.32967032967,0.815850815850816,33.7563261807663
1743284730367,17:45:30.367,-1,1260.80586080586,0.815850815850816,33.7563261807663
1743284730386,17:45:30.386,-1,1239.56043956044,0.814962814962815,33.7563261807663
1743284730406,17:45:30.406,-1,1230.03663003663,0.814962814962815,33.7563261807663
1743284730425,17:45:30.425,-1,1229.30402930403,0.814518814518814,33.7563261807663
1743284730445,17:45:30.445,-1,1221.24542124542,0.814074814074814,33.7563261807663
1743284730464,17:45:30.464,-1,1210.98901098901,0.814074814074814,33.7563261807663
1743284730484,17:45:30.484,-1,1198.5347985348,0.814074814074814,33.7563261807663
1743284730503,17:45:30.503,-1,1178.75457875458,0.813630813630814,33.7563261807663
1743284730523,17:45:30.523,-1,1175.09157509158,0.813630813630814,33.7563261807663
1743284730542,17:45:30.542,-1,1200,0.813630813630814,33.7563261807663
1743284730562,17:45:30.562,-1,1282.05128205128,0.813186813186813,33.7563261807663
1743284730581,17:45:30.581,-1,1427.10622710623,0.813186813186813,33.7563261807663
1743284730601,17:45:30.601,-1,1591.20879120879,0.813186813186813,33.7563261807663
1743284730620,17:45:30.620,-1,1756.77655677656,0.812742812742813,33.7563261807663
1743284730640,17:45:30.640,-1,1885.71428571429,0.812742812742813,33.7563261807663
1743284730659,17:45:30.659,-1,1971.42857142857,0.812298812298812,33.7563261807663
1743284730679,17:45:30.679,-1,2027.10622710623,0.812742812742813,33.7563261807663
1743284730698,17:45:30.698,-1,2060.80586080586,0.812742812742813,33.7563261807663
1743284730718,17:45:30.718,-1,2040.29304029304,0.812298812298812,33.7563261807663
1743284730737,17:45:30.737,-1,1984.61538461538,0.811854811854812,33.7563261807663
1743284730757,17:45:30.757,-1,1917.94871794872,0.811854811854812,33.7563261807663
1743284730776,17:45:30.776,-1,1846.15384615385,0.810966810966811,33.7563261807663
1743284730796,17:45:30.796,-1,1761.90476190476,0.810966810966811,33.7563261807663
1743284730815,17:45:30.815,-1,1665.20146520146,0.810966810966811,33.7563261807663
1743284730835,17:45:30.835,-1,1573.62637362637,0.810966810966811,33.7563261807663
1743284730854,17:45:30.854,-1,1503.2967032967,0.810522810522811,33.7563261807663
1743284730874,17:45:30.874,-1,1447.61904761905,0.810522810522811,33.7563261807663
1743284730893,17:45:30.893,-1,1402.9304029304,0.81007881007881,33.7563261807663
1743284730913,17:45:30.913,-1,1393.40659340659,0.81007881007881,33.7563261807663
1743284730932,17:45:30.932,-1,1386.08058608059,0.81007881007881,33.7563261807663
1743284730952,17:45:30.952,-1,1377.28937728938,0.81007881007881,33.7563261807663
1743284730971,17:45:30.971,-1,1356.77655677656,0.809634809634809,33.7563261807663
1743284730991,17:45:30.991,-1,1323.80952380952,0.809190809190809,33.7563261807663
1743284731010,17:45:31.010,-1,1292.30769230769,0.808746808746809,33.7563261807663
1743284731030,17:45:31.030,-1,1262.27106227106,0.809190809190809,33.7563261807663
1743284731049,17:45:31.049,-1,1228.57142857143,0.808746808746809,33.7563261807663
1743284731069,17:45:31.069,-1,1205.86080586081,0.808746808746809,33.7563261807663
1743284731088,17:45:31.088,-1,1174.35897435897,0.808302808302808,33.7563261807663
1743284731108,17:45:31.108,-1,1137.72893772894,0.808302808302808,33.7563261807663
1743284731127,17:45:31.127,-1,1131.13553113553,0.807858807858808,33.7563261807663
1743284731147,17:45:31.147,-1,1123.07692307692,0.808302808302808,33.7563261807663
1743284731166,17:45:31.166,-1,1116.48351648352,0.807858807858808,33.7563261807663
1743284731186,17:45:31.186,-1,1132.60073260073,0.807414807414807,33.7563261807663
1743284731205,17:45:31.205,-1,1142.12454212454,0.807414807414807,33.7563261807663
1743284731225,17:45:31.225,-1,1140.65934065934,0.806970806970807,33.7563261807663
1743284731244,17:45:31.244,-1,1121.61172161172,0.806970806970807,33.7563261807663
1743284731264,17:45:31.264,-1,1098.9010989011,0.806526806526806,33.7563261807663
1743284731283,17:45:31.283,-1,1061.53846153846,0.806082806082806,33.7563261807663
1743284731303,17:45:31.303,-1,1054.21245421245,0.806082806082806,33.7563261807663
1743284731322,17:45:31.322,-1,1091.57509157509,0.806082806082806,33.7563261807663
1743284731342,17:45:31.342,-1,1183.15018315018,0.805638805638806,33.7563261807663
1743284731361,17:45:31.361,-1,1322.34432234432,0.805194805194805,33.7563261807663
1743284731381,17:45:31.381,-1,1476.92307692308,0.805194805194805,33.7563261807663
1743284731400,17:45:31.400,-1,1615.38461538462,0.805194805194805,33.7563261807663
1743284731420,17:45:31.420,-1,1715.75091575092,0.805194805194805,33.7563261807663
1743284731439,17:45:31.439,-1,1772.89377289377,0.804750804750805,33.7563261807663
1743284731459,17:45:31.459,-1,1787.54578754579,0.804306804306804,33.7563261807663
1743284731478,17:45:31.478,-1,1780.21978021978,0.804306804306804,33.7563261807663
1743284731498,17:45:31.498,-1,1761.90476190476,0.803862803862804,33.7563261807663
1743284731517,17:45:31.517,-1,1728.93772893773,0.803862803862804,33.7563261807663
1743284731537,17:45:31.537,-1,1681.31868131868,0.803862803862804,33.7563261807663
1743284731556,17:45:31.556,-1,1619.04761904762,0.803418803418803,33.7563261807663
1743284731576,17:45:31.576,-1,1549.45054945055,0.802974802974803,33.7563261807663
1743284731595,17:45:31.595,-1,1490.10989010989,0.802974802974803,33.7563261807663
1743284731615,17:45:31.615,-1,1432.96703296703,0.802530802530803,33.7563261807663
1743284731634,17:45:31.634,-1,1370.69597069597,0.802530802530803,33.7563261807663
1743284731654,17:45:31.654,-1,1316.48351648352,0.802086802086802,33.7563261807663
1743284731673,17:45:31.673,-1,1290.84249084249,0.801642801642802,33.7563261807663
1743284731693,17:45:31.693,-1,1283.51648351648,0.801642801642802,33.7563261807663
1743284731712,17:45:31.712,-1,1260.80586080586,0.801642801642802,33.7563261807663
1743284731732,17:45:31.732,-1,1241.02564102564,0.801198801198801,33.7563261807663
1743284731751,17:45:31.751,-1,1223.44322344322,0.801198801198801,33.7563261807663
1743284731771,17:45:31.771,-1,1213.18681318681,0.801198801198801,33.7563261807663
1743284731790,17:45:31.790,-1,1205.12820512821,0.8003108003108,33.7563261807663
1743284731810,17:45:31.810,-1,1185.34798534799,0.7998667998668,33.7563261807663
1743284731829,17:45:31.829,-1,1157.50915750916,0.7998667998668,33.7563261807663
1743284731849,17:45:31.849,-1,1132.60073260073,0.7998667998668,33.7563261807663
1743284731868,17:45:31.868,-1,1121.61172161172,0.799422799422799,33.7563261807663
1743284731888,17:45:31.888,-1,1120.87912087912,0.799422799422799,33.7563261807663
1743284731907,17:45:31.907,-1,1111.35531135531,0.799422799422799,33.7563261807663
1743284731927,17:45:31.927,-1,1103.2967032967,0.798978798978799,33.7563261807663
1743284731946,17:45:31.946,-1,1105.49450549451,0.798978798978799,33.7563261807663
1743284731966,17:45:31.966,-1,1112.82051282051,0.799422799422799,33.7563261807663
1743284731985,17:45:31.985,-1,1110.62271062271,0.798978798978799,33.7563261807663
1743284732005,17:45:32.005,-1,1109.15750915751,0.798534798534799,33.7563261807663
1743284732024,17:45:32.024,-1,1108.42490842491,0.798090798090798,33.7563261807663
1743284732044,17:45:32.044,-1,1121.61172161172,0.797646797646798,33.7563261807663
1743284732063,17:45:32.063,-1,1155.31135531136,0.797646797646798,33.7563261807663
1743284732083,17:45:32.083,-1,1227.83882783883,0.797646797646798,33.7563261807663
1743284732102,17:45:32.102,-1,1324.54212454212,0.797646797646798,33.7563261807663
1743284732122,17:45:32.122,-1,1424.90842490842,0.797202797202797,33.7563261807663
1743284732141,17:45:32.141,-1,1505.49450549451,0.796758796758797,33.7563261807663
1743284732161,17:45:32.161,-1,1564.10256410256,0.796314796314796,33.7563261807663
1743284732180,17:45:32.180,-1,1592.67399267399,0.796758796758797,33.7563261807663
1743284732200,17:45:32.200,-1,1590.47619047619,0.796314796314796,33.7563261807663
1743284732219,17:45:32.219,-1,1568.49816849817,0.796314796314796,33.7563261807663
1743284732239,17:45:32.239,-1,1539.19413919414,0.795870795870796,33.7563261807663
1743284732258,17:45:32.258,-1,1506.95970695971,0.795870795870796,33.7563261807663
1743284732278,17:45:32.278,-1,1457.87545787546,0.795870795870796,33.7563261807663
1743284732297,17:45:32.297,-1,1417.58241758242,0.795426795426795,33.7563261807663
1743284732317,17:45:32.317,-1,1372.89377289377,0.795426795426795,33.7563261807663
1743284732336,17:45:32.336,-1,1315.01831501831,0.795426795426795,33.7563261807663
1743284732356,17:45:32.356,-1,1274.72527472527,0.794982794982795,33.7563261807663
1743284732375,17:45:32.375,-1,1233.69963369963,0.794094794094794,33.7563261807663
1743284732395,17:45:32.395,-1,1213.91941391941,0.794094794094794,33.7563261807663
1743284732414,17:45:32.414,-1,1209.52380952381,0.794538794538795,33.7563261807663
1743284732434,17:45:32.434,-1,1201.4652014652,0.794094794094794,33.7563261807663
1743284732453,17:45:32.453,-1,1203.663003663,0.793650793650793,33.7563261807663
1743284732473,17:45:32.473,-1,1200,0.793650793650793,33.7563261807663
1743284732492,17:45:32.492,-1,1186.81318681319,0.793206793206793,33.7563261807663
1743284732512,17:45:32.512,-1,1179.48717948718,0.793206793206793,33.7563261807663
1743284732531,17:45:32.531,-1,1182.41758241758,0.793206793206793,33.7563261807663
1743284732551,17:45:32.551,-1,1180.95238095238,0.792762792762793,33.7563261807663
1743284732570,17:45:32.570,-1,1175.82417582418,0.792318792318792,33.7563261807663
1743284732590,17:45:32.590,-1,1173.62637362637,0.792318792318792,33.7563261807663
1743284732609,17:45:32.609,-1,1171.42857142857,0.791874791874792,33.7563261807663
1743284732629,17:45:32.629,-1,1172.16117216117,0.791874791874792,33.7563261807663
1743284732648,17:45:32.648,-1,1163.36996336996,0.791874791874792,33.7563261807663
1743284732668,17:45:32.668,-1,1161.17216117216,0.791874791874792,33.7563261807663
1743284732687,17:45:32.687,-1,1150.91575091575,0.791430791430792,33.7563261807663
1743284732707,17:45:32.707,-1,1140.65934065934,0.790986790986791,33.7563261807663
1743284732726,17:45:32.726,-1,1122.34432234432,0.790986790986791,33.7563261807663
1743284732746,17:45:32.746,-1,1103.2967032967,0.790542790542791,33.7563261807663
1743284732765,17:45:32.765,-1,1120.14652014652,0.790542790542791,33.7563261807663
1743284732785,17:45:32.785,-1,1181.68498168498,0.790542790542791,33.7563261807663
1743284732804,17:45:32.804,-1,1271.06227106227,0.79009879009879,33.7563261807663
1743284732824,17:45:32.824,-1,1370.69597069597,0.79009879009879,33.7563261807663
1743284732843,17:45:32.843,-1,1461.53846153846,0.789654789654789,33.7563261807663
1743284732863,17:45:32.863,-1,1538.46153846154,0.789654789654789,33.7563261807663
1743284732882,17:45:32.882,-1,1591.94139194139,0.789654789654789,33.7563261807663
1743284732902,17:45:32.902,-1,1603.663003663,0.789210789210789,33.7563261807663
1743284732921,17:45:32.921,-1,1600,0.789210789210789,33.7563261807663
1743284732941,17:45:32.941,-1,1581.68498168498,0.788766788766789,33.7563261807663
1743284732960,17:45:32.960,-1,1560.43956043956,0.788322788322788,33.7563261807663
1743284732980,17:45:32.980,-1,1525.27472527473,0.788322788322788,33.7563261807663
1743284732999,17:45:32.999,-1,1476.19047619048,0.788322788322788,33.7563261807663
1743284733019,17:45:33.019,-1,1434.43223443223,0.788322788322788,33.7563261807663
1743284733038,17:45:33.038,-1,1392.67399267399,0.787878787878788,33.7563261807663
1743284733058,17:45:33.058,-1,1340.65934065934,0.787434787434787,33.7563261807663
1743284733077,17:45:33.077,-1,1301.8315018315,0.787434787434787,33.7563261807663
1743284733097,17:45:33.097,-1,1273.99267399267,0.787434787434787,33.7563261807663
1743284733116,17:45:33.116,-1,1269.59706959707,0.787434787434787,33.7563261807663
1743284733136,17:45:33.136,-1,1263.00366300366,0.786990786990787,33.7563261807663
1743284733155,17:45:33.155,-1,1262.27106227106,0.786546786546786,33.7563261807663
1743284733175,17:45:33.175,-1,1254.94505494505,0.786546786546786,33.7413172903471
1743284733194,17:45:33.194,-1,1249.81684981685,0.786102786102786,33.7413172903471
1743284733214,17:45:33.214,-1,1260.07326007326,0.786102786102786,33.7413172903471
1743284733233,17:45:33.233,-1,1258.60805860806,0.786102786102786,33.7413172903471
1743284733253,17:45:33.253,-1,1243.95604395604,0.785658785658786,33.7413172903471
1743284733272,17:45:33.272,-1,1219.78021978022,0.785214785214785,33.7413172903471
1743284733292,17:45:33.292,-1,1187.54578754579,0.785214785214785,33.7413172903471
1743284733311,17:45:33.311,-1,1182.41758241758,0.785214785214785,33.7413172903471
1743284733331,17:45:33.331,-1,1189.01098901099,0.784770784770785,33.7413172903471
1743284733350,17:45:33.350,-1,1186.81318681319,0.784770784770785,33.7413172903471
1743284733370,17:45:33.370,-1,1180.95238095238,0.784770784770785,33.7413172903471
1743284733389,17:45:33.389,-1,1188.27838827839,0.784326784326784,33.7413172903471
1743284733409,17:45:33.409,-1,1188.27838827839,0.783882783882784,33.7413172903471
1743284733428,17:45:33.428,-1,1179.48717948718,0.783882783882784,33.7413172903471
1743284733448,17:45:33.448,-1,1172.89377289377,0.783882783882784,33.7413172903471
1743284733467,17:45:33.467,-1,1172.89377289377,0.783882783882784,33.7413172903471
1743284733487,17:45:33.487,-1,1173.62637362637,0.783882783882784,33.7413172903471
1743284733506,17:45:33.506,-1,1204.3956043956,0.782994782994783,33.7413172903471
1743284733526,17:45:33.526,-1,1262.27106227106,0.782994782994783,33.7413172903471
1743284733545,17:45:33.545,-1,1329.67032967033,0.782550782550783,33.7413172903471
1743284733565,17:45:33.565,-1,1397.0695970696,0.782994782994783,33.7413172903471
1743284733584,17:45:33.584,-1,1467.39926739927,0.782994782994783,33.7413172903471
1743284733604,17:45:33.604,-1,1520.14652014652,0.782550782550783,33.7413172903471
1743284733623,17:45:33.623,-1,1565.56776556777,0.782106782106782,33.7413172903471
1743284733643,17:45:33.643,-1,1589.74358974359,0.782106782106782,33.7413172903471
1743284733662,17:45:33.662,-1,1618.31501831502,0.782106782106782,33.7413172903471
1743284733682,17:45:33.682,-1,1619.04761904762,0.782106782106782,33.7413172903471
1743284733701,17:45:33.701,-1,1580.21978021978,0.781662781662781,33.7413172903471
1743284733721,17:45:33.721,-1,1532.60073260073,0.781218781218781,33.7413172903471
1743284733740,17:45:33.740,-1,1517.94871794872,0.781218781218781,33.7413172903471
1743284733760,17:45:33.760,-1,1498.9010989011,0.780774780774781,33.7413172903471
1743284733779,17:45:33.779,-1,1465.93406593407,0.780774780774781,33.7413172903471
1743284733799,17:45:33.799,-1,1430.76923076923,0.780774780774781,33.7413172903471
1743284733818,17:45:33.818,-1,1384.61538461538,0.78033078033078,33.7413172903471
1743284733838,17:45:33.838,-1,1358.24175824176,0.77988677988678,33.7413172903471
1743284733857,17:45:33.857,-1,1350.18315018315,0.779442779442779,33.7413172903471
1743284733877,17:45:33.877,-1,1342.12454212454,0.779442779442779,33.7413172903471
1743284733896,17:45:33.896,-1,1323.07692307692,0.779442779442779,33.7413172903471
1743284733916,17:45:33.916,-1,1293.77289377289,0.779442779442779,33.7413172903471
1743284733935,17:45:33.935,-1,1277.65567765568,0.778998778998779,33.7413172903471
1743284733955,17:45:33.955,-1,1282.78388278388,0.778554778554779,33.7413172903471
1743284733974,17:45:33.974,-1,1283.51648351648,0.778554778554779,33.7413172903471
1743284733994,17:45:33.994,-1,1274.72527472527,0.778110778110778,33.7413172903471
1743284734013,17:45:34.013,-1,1260.80586080586,0.778110778110778,33.7413172903471
1743284734033,17:45:34.033,-1,1246.15384615385,0.778110778110778,33.7413172903471
1743284734052,17:45:34.052,-1,1240.29304029304,0.777666777666778,33.7413172903471
1743284734072,17:45:34.072,-1,1235.16483516484,0.777222777222777,33.7413172903471
1743284734091,17:45:34.091,-1,1219.78021978022,0.777222777222777,33.7413172903471
1743284734111,17:45:34.111,-1,1197.0695970696,0.777222777222777,33.7413172903471
1743284734130,17:45:34.130,-1,1186.08058608059,0.777222777222777,33.7413172903471
1743284734150,17:45:34.150,-1,1197.8021978022,0.776778776778777,33.7413172903471
1743284734169,17:45:34.169,-1,1205.86080586081,0.776778776778777,33.7463202596409
1743284734189,17:45:34.189,-1,1202.9304029304,0.776778776778777,33.7463202596409
1743284734208,17:45:34.208,-1,1189.74358974359,0.776334776334776,33.7463202596409
1743284734228,17:45:34.228,-1,1175.09157509158,0.776334776334776,33.7463202596409
1743284734247,17:45:34.247,-1,1183.15018315018,0.776334776334776,33.7463202596409
1743284734267,17:45:34.267,-1,1221.97802197802,0.776334776334776,33.7463202596409
1743284734286,17:45:34.286,-1,1294.50549450549,0.776334776334776,33.7463202596409
1743284734306,17:45:34.306,-1,1394.87179487179,0.775890775890776,33.7463202596409
1743284734325,17:45:34.325,-1,1502.5641025641,0.775446775446775,33.7463202596409
1743284734345,17:45:34.345,-1,1594.87179487179,0.775890775890776,33.7463202596409
1743284734364,17:45:34.364,-1,1649.81684981685,0.775890775890776,33.7463202596409
1743284734384,17:45:34.384,-1,1682.78388278388,0.775002775002775,33.7463202596409
1743284734403,17:45:34.403,-1,1694.50549450549,0.775002775002775,33.7463202596409
1743284734423,17:45:34.423,-1,1693.04029304029,0.775002775002775,33.7463202596409
1743284734442,17:45:34.442,-1,1692.30769230769,0.774558774558775,33.7463202596409
1743284734462,17:45:34.462,-1,1682.05128205128,0.774558774558775,33.7463202596409
1743284734481,17:45:34.481,-1,1660.80586080586,0.774558774558775,33.7463202596409
1743284734501,17:45:34.501,-1,1635.16483516484,0.774558774558775,33.7463202596409
1743284734520,17:45:34.520,-1,1585.34798534799,0.774114774114774,33.7463202596409
1743284734540,17:45:34.540,-1,1522.34432234432,0.773670773670774,33.7463202596409
1743284734559,17:45:34.559,-1,1476.92307692308,0.773670773670774,33.7463202596409
1743284734579,17:45:34.579,-1,1446.88644688645,0.773670773670774,33.7463202596409
1743284734598,17:45:34.598,-1,1423.44322344322,0.773670773670774,33.7463202596409
1743284734618,17:45:34.618,-1,1397.8021978022,0.773226773226773,33.7463202596409
1743284734637,17:45:34.637,-1,1383.15018315018,0.773226773226773,33.7463202596409
1743284734657,17:45:34.657,-1,1377.28937728938,0.772782772782773,33.7463202596409
1743284734676,17:45:34.676,-1,1374.35897435897,0.772782772782773,33.7463202596409
1743284734696,17:45:34.696,-1,1369.23076923077,0.772782772782773,33.7463202596409
1743284734715,17:45:34.715,-1,1353.11355311355,0.772338772338772,33.7463202596409
1743284734735,17:45:34.735,-1,1321.61172161172,0.772338772338772,33.7463202596409
1743284734754,17:45:34.754,-1,1309.89010989011,0.772338772338772,33.7463202596409
1743284734774,17:45:34.774,-1,1304.7619047619,0.771894771894772,33.7463202596409
1743284734793,17:45:34.793,-1,1298.1684981685,0.771894771894772,33.7463202596409
1743284734813,17:45:34.813,-1,1285.71428571429,0.771894771894772,33.7463202596409
1743284734832,17:45:34.832,-1,1257.87545787546,0.771894771894772,33.7463202596409
1743284734852,17:45:34.852,-1,1231.50183150183,0.771450771450771,33.7463202596409
1743284734871,17:45:34.871,-1,1232.96703296703,0.771450771450771,33.7463202596409
1743284734891,17:45:34.891,-1,1231.50183150183,0.771006771006771,33.7463202596409
1743284734910,17:45:34.910,-1,1224.90842490842,0.771006771006771,33.7463202596409
1743284734930,17:45:34.930,-1,1216.84981684982,0.770562770562771,33.7463202596409
1743284734949,17:45:34.949,-1,1212.45421245421,0.770562770562771,33.7463202596409
1743284734969,17:45:34.969,-1,1210.25641025641,0.770562770562771,33.7463202596409
1743284734988,17:45:34.988,-1,1229.30402930403,0.77011877011877,33.7463202596409
1743284735008,17:45:35.008,-1,1258.60805860806,0.77011877011877,33.7463202596409
1743284735027,17:45:35.027,-1,1305.49450549451,0.77011877011877,33.7463202596409
1743284735047,17:45:35.047,-1,1391.20879120879,0.77011877011877,33.7463202596409
1743284735067,17:45:35.066,-1,1486.44688644689,0.77011877011877,33.7463202596409
1743284735086,17:45:35.086,-1,1585.34798534799,0.76967476967477,33.7463202596409
1743284735106,17:45:35.105,-1,1669.59706959707,0.769230769230769,33.7463202596409
1743284735125,17:45:35.125,-1,1720.14652014652,0.769230769230769,33.7463202596409
1743284735145,17:45:35.144,-1,1756.77655677656,0.769230769230769,33.7463202596409
1743284735164,17:45:35.164,-1,1791.20879120879,0.769230769230769,33.7463202596409
1743284735184,17:45:35.184,-1,1810.25641025641,0.769230769230769,33.7463202596409
1743284735203,17:45:35.203,-1,1815.38461538462,0.769230769230769,33.7463202596409
1743284735223,17:45:35.223,-1,1797.0695970696,0.768786768786769,33.7463202596409
1743284735242,17:45:35.242,-1,1762.63736263736,0.768786768786769,33.7463202596409
1743284735262,17:45:35.262,-1,1723.07692307692,0.768786768786769,33.7463202596409
1743284735281,17:45:35.281,-1,1668.13186813187,0.768786768786769,33.7463202596409
1743284735301,17:45:35.301,-1,1607.32600732601,0.768342768342768,33.7463202596409
1743284735320,17:45:35.320,-1,1547.25274725275,0.767898767898768,33.7463202596409
1743284735340,17:45:35.340,-1,1521.61172161172,0.767898767898768,33.7463202596409
1743284735359,17:45:35.359,-1,1505.49450549451,0.767454767454767,33.7463202596409
1743284735379,17:45:35.379,-1,1484.98168498168,0.767898767898768,33.7463202596409
1743284735398,17:45:35.398,-1,1465.93406593407,0.767898767898768,33.7463202596409
1743284735418,17:45:35.418,-1,1454.94505494505,0.767898767898768,33.7463202596409
1743284735437,17:45:35.437,-1,1445.42124542125,0.767454767454767,33.7463202596409
1743284735457,17:45:35.457,-1,1427.83882783883,0.766566766566767,33.7463202596409
1743284735476,17:45:35.476,-1,1405.12820512821,0.767010767010767,33.7463202596409
1743284735496,17:45:35.496,-1,1380.95238095238,0.766566766566767,33.7463202596409
1743284735515,17:45:35.515,-1,1358.97435897436,0.767010767010767,33.7463202596409
1743284735535,17:45:35.535,-1,1337.72893772894,0.767010767010767,33.7463202596409
1743284735554,17:45:35.554,-1,1320.14652014652,0.766566766566767,33.7463202596409
1743284735574,17:45:35.574,-1,1301.0989010989,0.766122766122766,33.7463202596409
1743284735593,17:45:35.593,-1,1287.91208791209,0.766122766122766,33.7463202596409
1743284735613,17:45:35.613,-1,1269.59706959707,0.766122766122766,33.7463202596409
1743284735632,17:45:35.632,-1,1267.39926739927,0.766122766122766,33.7463202596409
1743284735652,17:45:35.652,-1,1261.53846153846,0.765678765678766,33.7463202596409
1743284735671,17:45:35.671,-1,1253.47985347985,0.765678765678766,33.7463202596409
1743284735691,17:45:35.691,-1,1249.08424908425,0.765234765234765,33.7463202596409
1743284735710,17:45:35.710,-1,1245.42124542125,0.765234765234765,33.7463202596409
1743284735730,17:45:35.730,-1,1273.26007326007,0.765234765234765,33.7463202596409
1743284735749,17:45:35.749,-1,1363.36996336996,0.765234765234765,33.7463202596409
1743284735769,17:45:35.769,-1,1495.2380952381,0.765234765234765,33.7463202596409
1743284735788,17:45:35.788,-1,1644.68864468864,0.764346764346764,33.7463202596409
1743284735808,17:45:35.808,-1,1770.69597069597,0.764346764346764,33.7463202596409
1743284735827,17:45:35.827,-1,1854.21245421245,0.764790764790765,33.7463202596409
1743284735847,17:45:35.847,-1,1912.82051282051,0.764346764346764,33.7463202596409
1743284735866,17:45:35.866,-1,1931.13553113553,0.764346764346764,33.7463202596409
1743284735886,17:45:35.886,-1,1926.00732600733,0.764346764346764,33.7463202596409
1743284735905,17:45:35.905,-1,1898.9010989011,0.763902763902764,33.7463202596409
1743284735925,17:45:35.925,-1,1857.14285714286,0.763458763458764,33.7463202596409
1743284735944,17:45:35.944,-1,1794.87179487179,0.763902763902764,33.7463202596409
1743284735964,17:45:35.964,-1,1708.42490842491,0.763458763458764,33.7463202596409
1743284735983,17:45:35.983,-1,1630.03663003663,0.763902763902764,33.7463202596409
1743284736003,17:45:36.003,-1,1580.21978021978,0.763458763458764,33.7463202596409
1743284736022,17:45:36.022,-1,1557.50915750916,0.763014763014763,33.7463202596409
1743284736042,17:45:36.042,-1,1544.32234432234,0.763014763014763,33.7463202596409
1743284736061,17:45:36.061,-1,1528.20512820513,0.762570762570763,33.7463202596409
1743284736081,17:45:36.081,-1,1495.9706959707,0.763014763014763,33.7463202596409
1743284736100,17:45:36.100,-1,1479.12087912088,0.763014763014763,33.7463202596409
1743284736120,17:45:36.120,-1,1464.46886446886,0.762126762126762,33.7463202596409
1743284736139,17:45:36.139,-1,1445.42124542125,0.762126762126762,33.7463202596409
1743284736159,17:45:36.159,-1,1418.31501831502,0.761682761682761,33.7463202596409
1743284736178,17:45:36.178,-1,1383.15018315018,0.761238761238761,33.7463202596409
1743284736198,17:45:36.198,-1,1357.50915750916,0.761682761682761,33.7463202596409
1743284736217,17:45:36.217,-1,1333.33333333333,0.761238761238761,33.7463202596409
1743284736237,17:45:36.237,-1,1309.89010989011,0.761238761238761,33.7463202596409
1743284736256,17:45:36.256,-1,1291.57509157509,0.760794760794761,33.7463202596409
1743284736276,17:45:36.276,-1,1278.38827838828,0.760794760794761,33.7463202596409
1743284736295,17:45:36.295,-1,1265.93406593407,0.760794760794761,33.7463202596409
1743284736315,17:45:36.315,-1,1260.07326007326,0.760794760794761,33.7463202596409
1743284736334,17:45:36.334,-1,1251.28205128205,0.760794760794761,33.7463202596409
1743284736354,17:45:36.354,-1,1241.02564102564,0.76035076035076,33.7463202596409
1743284736373,17:45:36.373,-1,1224.17582417582,0.76035076035076,33.7463202596409
1743284736393,17:45:36.393,-1,1217.58241758242,0.76035076035076,33.7463202596409
1743284736412,17:45:36.412,-1,1251.28205128205,0.76035076035076,33.7463202596409
1743284736432,17:45:36.432,-1,1342.85714285714,0.76035076035076,33.7463202596409
1743284736451,17:45:36.451,-1,1482.78388278388,0.76035076035076,33.7463202596409
1743284736471,17:45:36.471,-1,1641.02564102564,0.76035076035076,33.7463202596409
1743284736490,17:45:36.490,-1,1774.35897435897,0.75990675990676,33.7463202596409
1743284736510,17:45:36.510,-1,1886.44688644689,0.75946275946276,33.7463202596409
1743284736529,17:45:36.529,-1,1960.43956043956,0.759018759018759,33.7463202596409
1743284736549,17:45:36.549,-1,1986.81318681319,0.759018759018759,33.7463202596409
1743284736568,17:45:36.568,-1,1983.15018315018,0.759018759018759,33.7463202596409
1743284736588,17:45:36.588,-1,1967.03296703297,0.758574758574759,33.7463202596409
1743284736607,17:45:36.607,-1,1945.05494505494,0.758130758130758,33.7463202596409
1743284736627,17:45:36.627,-1,1920.14652014652,0.758130758130758,33.7463202596409
1743284736646,17:45:36.646,-1,1869.59706959707,0.758130758130758,33.7463202596409
1743284736666,17:45:36.666,-1,1773.62637362637,0.758130758130758,33.7463202596409
1743284736685,17:45:36.685,-1,1678.38827838828,0.758130758130758,33.7463202596409
1743284736705,17:45:36.705,-1,1592.67399267399,0.757686757686758,33.7463202596409
1743284736724,17:45:36.724,-1,1529.67032967033,0.757686757686758,33.7463202596409
1743284736744,17:45:36.744,-1,1489.37728937729,0.757686757686758,33.7463202596409
1743284736763,17:45:36.763,-1,1466.66666666667,0.757686757686758,33.7463202596409
1743284736783,17:45:36.783,-1,1439.56043956044,0.757242757242757,33.7463202596409
1743284736802,17:45:36.802,-1,1406.59340659341,0.757242757242757,33.7463202596409
1743284736822,17:45:36.822,-1,1381.68498168498,0.756798756798757,33.7463202596409
1743284736841,17:45:36.841,-1,1367.03296703297,0.756798756798757,33.7463202596409
1743284736861,17:45:36.861,-1,1350.18315018315,0.756354756354756,33.7463202596409
1743284736880,17:45:36.880,-1,1333.33333333333,0.756354756354756,33.7463202596409
1743284736900,17:45:36.900,-1,1320.87912087912,0.756798756798757,33.7463202596409
1743284736919,17:45:36.919,-1,1300.3663003663,0.756354756354756,33.7463202596409
1743284736939,17:45:36.939,-1,1291.57509157509,0.755910755910756,33.7463202596409
1743284736958,17:45:36.958,-1,1287.17948717949,0.755910755910756,33.7463202596409
1743284736978,17:45:36.978,-1,1271.79487179487,0.755466755466755,33.7463202596409
1743284736997,17:45:36.997,-1,1249.81684981685,0.755910755910756,33.7463202596409
1743284737017,17:45:37.017,-1,1214.65201465201,0.755910755910756,33.7463202596409
1743284737036,17:45:37.036,-1,1186.08058608059,0.755466755466755,33.7463202596409
1743284737056,17:45:37.056,-1,1178.02197802198,0.755022755022755,33.7463202596409
1743284737075,17:45:37.075,-1,1180.95238095238,0.755022755022755,33.7463202596409
1743284737095,17:45:37.095,-1,1179.48717948718,0.754578754578755,33.7463202596409
1743284737114,17:45:37.114,-1,1185.34798534799,0.755022755022755,33.7463202596409
1743284737134,17:45:37.134,-1,1232.96703296703,0.755022755022755,33.7463202596409
1743284737153,17:45:37.153,-1,1346.52014652015,0.754578754578755,33.7363143152324
1743284737173,17:45:37.173,-1,1490.84249084249,0.754134754134754,33.7363143152324
1743284737192,17:45:37.192,-1,1634.43223443223,0.754134754134754,33.7363143152324
1743284737212,17:45:37.212,-1,1757.50915750916,0.753690753690754,33.7363143152324
1743284737231,17:45:37.231,-1,1835.89743589744,0.754134754134754,33.7363143152324
1743284737251,17:45:37.251,-1,1879.85347985348,0.753690753690754,33.7363143152324
1743284737270,17:45:37.270,-1,1898.1684981685,0.753246753246753,33.7363143152324
