RawTimestamp,LocalTime,HR_Direct,HR_Buffered,PPG,GSR,Temperature
1743439021114,12:37:01.114,-1,-1,0,0.756776556776557,26.4608428180218
1743439021133,12:37:01.133,-1,-1,0,0.756776556776557,26.4608428180218
1743439021153,12:37:01.153,-1,-1,0,0.820075446941121,26.4608428180218
1743439021172,12:37:01.172,-1,-1,0,0.820075446941121,26.4608428180218
1743439021192,12:37:01.192,-1,-1,0,0.820075446941121,26.4608428180218
1743439021211,12:37:01.211,-1,-1,0,0.820075446941121,26.4608428180218
1743439021231,12:37:01.231,-1,-1,0,0.820075446941121,26.4608428180218
1743439021250,12:37:01.250,-1,-1,0,0.773442585289275,26.4608428180218
1743439021270,12:37:01.270,-1,-1,0,0.773442585289275,26.4608428180218
1743439021289,12:37:01.289,-1,-1,0,0.773442585289275,26.4608428180218
1743439021309,12:37:01.309,-1,-1,0,0.773442585289275,26.4608428180218
1743439021328,12:37:01.328,-1,-1,0,0.773442585289275,26.4608428180218
1743439021348,12:37:01.348,-1,-1,0,0.783150183150183,26.4608428180218
1743439021367,12:37:01.367,-1,-1,0,0.783150183150183,26.4608428180218
1743439021387,12:37:01.387,-1,-1,0,0.783150183150183,26.4608428180218
1743439021406,12:37:01.406,-1,-1,0,0.783150183150183,26.4608428180218
1743439021426,12:37:01.426,-1,-1,0,0.783150183150183,26.4608428180218
1743439021445,12:37:01.445,-1,-1,0,0.78033078033078,26.4608428180218
1743439021465,12:37:01.465,-1,-1,0,0.77988677988678,26.4608428180218
1743439021484,12:37:01.484,-1,-1,0,0.77988677988678,26.4608428180218
1743439021504,12:37:01.504,-1,-1,0,0.778554778554779,26.4608428180218
1743439021523,12:37:01.523,-1,-1,0,0.775890775890776,26.4608428180218
1743439021543,12:37:01.543,-1,-1,0,0.76967476967477,26.4608428180218
1743439021562,12:37:01.562,-1,-1,0,0.768342768342768,26.4608428180218
1743439021582,12:37:01.582,-1,-1,0,0.771894771894772,26.4608428180218
1743439021601,12:37:01.601,-1,-1,0,0.771450771450771,26.4608428180218
1743439021621,12:37:01.621,-1,-1,0,0.766122766122766,26.4608428180218
1743439021640,12:37:01.640,-1,-1,0,0.762126762126762,26.4608428180218
1743439021660,12:37:01.660,-1,-1,0,0.75990675990676,26.4608428180218
1743439021679,12:37:01.679,-1,-1,0,0.756354756354756,26.4608428180218
1743439021699,12:37:01.699,-1,-1,0,0.752802752802753,26.4608428180218
1743439021718,12:37:01.718,-1,-1,0,0.74969474969475,26.4608428180218
1743439021738,12:37:01.738,-1,-1,0,0.746142746142746,26.4608428180218
1743439021757,12:37:01.757,-1,-1,0,0.741702741702742,26.4608428180218
1743439021777,12:37:01.777,-1,-1,0,0.738594738594738,26.4608428180218
1743439021796,12:37:01.796,-1,-1,0,0.735930735930736,26.4608428180218
1743439021816,12:37:01.816,-1,-1,0,0.743034743034743,26.4608428180218
1743439021835,12:37:01.835,-1,-1,0,0.753246753246753,26.4608428180218
1743439021855,12:37:01.855,-1,-1,0,0.755466755466755,26.4608428180218
1743439021874,12:37:01.874,-1,-1,0,0.755466755466755,26.4608428180218
1743439021894,12:37:01.894,-1,-1,0,0.751026751026751,26.4608428180218
1743439021913,12:37:01.913,-1,-1,0,0.742146742146742,26.4608428180218
1743439021933,12:37:01.933,-1,-1,0,0.727050727050727,26.4608428180218
1743439021952,12:37:01.952,-1,-1,0,0.723498723498723,26.4608428180218
1743439021972,12:37:01.972,-1,-1,0,0.725274725274725,26.4608428180218
1743439021991,12:37:01.991,-1,-1,0,0.72971472971473,26.4608428180218
1743439022011,12:37:02.011,-1,-1,0,0.731934731934732,26.4608428180218
1743439022030,12:37:02.030,-1,-1,0,0.732378732378732,32.775635246071
1743439022050,12:37:02.050,-1,-1,0,0.72971472971473,32.775635246071
1743439022069,12:37:02.069,-1,-1,0,0.73015873015873,32.775635246071
1743439022089,12:37:02.089,-1,-1,0,0.732822732822733,32.775635246071
1743439022108,12:37:02.108,-1,-1,0,0.734154734154734,32.775635246071
1743439022128,12:37:02.128,-1,-1,0,0.735042735042735,32.775635246071
1743439022147,12:37:02.147,-1,-1,0,0.735042735042735,32.775635246071
1743439022167,12:37:02.167,-1,-1,0,0.737262737262737,32.775635246071
1743439022186,12:37:02.186,-1,-1,0,0.735930735930736,32.775635246071
1743439022206,12:37:02.206,-1,-1,0,0.745254745254745,32.775635246071
1743439022225,12:37:02.225,-1,-1,0,0.755910755910756,32.775635246071
1743439022245,12:37:02.245,-1,-1,0,0.758130758130758,32.775635246071
1743439022264,12:37:02.264,-1,-1,0,0.75946275946276,32.775635246071
1743439022284,12:37:02.284,-1,-1,0,0.75990675990676,32.775635246071
1743439022303,12:37:02.303,-1,-1,0,0.75990675990676,32.775635246071
1743439022323,12:37:02.323,-1,-1,0,0.75990675990676,32.775635246071
1743439022342,12:37:02.342,-1,-1,0,0.76035076035076,32.775635246071
1743439022362,12:37:02.362,-1,-1,0,0.761238761238761,32.775635246071
1743439022381,12:37:02.381,-1,-1,0,0.763014763014763,32.775635246071
1743439022401,12:37:02.401,-1,-1,0,0.764346764346764,32.775635246071
1743439022420,12:37:02.420,-1,-1,0,0.765234765234765,32.775635246071
1743439022440,12:37:02.440,-1,-1,0,0.766122766122766,32.775635246071
1743439022459,12:37:02.459,-1,-1,0,0.767454767454767,32.775635246071
1743439022479,12:37:02.479,-1,-1,0,0.769230769230769,32.775635246071
1743439022498,12:37:02.498,-1,-1,0,0.770562770562771,32.775635246071
1743439022518,12:37:02.518,-1,-1,0,0.772338772338772,32.775635246071
1743439022537,12:37:02.537,-1,-1,0,0.773226773226773,32.775635246071
1743439022557,12:37:02.557,-1,-1,0,0.773670773670774,32.775635246071
1743439022576,12:37:02.576,-1,-1,0,0.773226773226773,32.775635246071
1743439022596,12:37:02.596,-1,-1,0,0.766122766122766,32.775635246071
1743439022615,12:37:02.615,-1,-1,0,0.77011877011877,32.775635246071
1743439022635,12:37:02.635,-1,-1,0,0.764346764346764,32.775635246071
1743439022654,12:37:02.654,-1,-1,0,0.761238761238761,32.775635246071
1743439022674,12:37:02.674,-1,-1,0,0.765234765234765,32.775635246071
1743439022693,12:37:02.693,-1,-1,40.2930402930403,0.768342768342768,32.775635246071
1743439022713,12:37:02.713,-1,-1,476.190476190476,0.772338772338772,32.775635246071
1743439022732,12:37:02.732,-1,-1,934.798534798535,0.776334776334776,32.775635246071
1743439022752,12:37:02.752,-1,-1,1281.31868131868,0.777666777666778,32.775635246071
1743439022771,12:37:02.771,-1,-1,1510.62271062271,0.782994782994783,32.775635246071
1743439022791,12:37:02.791,-1,-1,1648.35164835165,0.790542790542791,32.775635246071
1743439022810,12:37:02.810,-1,-1,1715.01831501831,0.793650793650793,32.775635246071
1743439022830,12:37:02.830,-1,-1,1720.87912087912,0.794094794094794,32.775635246071
1743439022849,12:37:02.849,-1,-1,1699.6336996337,0.795870795870796,32.775635246071
1743439022869,12:37:02.869,-1,-1,1669.59706959707,0.797646797646798,32.775635246071
1743439022888,12:37:02.888,-1,-1,1652.01465201465,0.800754800754801,32.775635246071
1743439022908,12:37:02.908,-1,-1,1624.90842490842,0.802974802974803,32.775635246071
1743439022927,12:37:02.927,-1,-1,1600,0.805194805194805,32.775635246071
1743439022947,12:37:02.947,-1,-1,1583.88278388278,0.806526806526806,32.775635246071
1743439022966,12:37:02.966,-1,-1,1582.41758241758,0.806526806526806,32.775635246071
1743439022986,12:37:02.986,-1,-1,1580.95238095238,0.807414807414807,32.775635246071
1743439023005,12:37:03.005,-1,-1,1578.02197802198,0.807414807414807,32.775635246071
1743439023025,12:37:03.025,-1,-1,1571.42857142857,0.807414807414807,32.8006556513719
1743439023044,12:37:03.044,-1,-1,1549.45054945055,0.807858807858808,32.8006556513719
1743439023064,12:37:03.064,-1,-1,1536.26373626374,0.808302808302808,32.8006556513719
1743439023083,12:37:03.083,-1,-1,1506.95970695971,0.808302808302808,32.8006556513719
1743439023103,12:37:03.103,-1,-1,1487.91208791209,0.808302808302808,32.8006556513719
1743439023122,12:37:03.122,-1,-1,1479.12087912088,0.809190809190809,32.8006556513719
1743439023142,12:37:03.142,-1,-1,1468.86446886447,0.807858807858808,32.8006556513719
1743439023161,12:37:03.161,-1,-1,1459.34065934066,0.807858807858808,32.8006556513719
1743439023181,12:37:03.181,-1,-1,1441.02564102564,0.807414807414807,32.8006556513719
1743439023200,12:37:03.200,-1,-1,1413.91941391941,0.806082806082806,32.8006556513719
1743439023220,12:37:03.220,-1,-1,1390.47619047619,0.806970806970807,32.8006556513719
1743439023239,12:37:03.239,-1,-1,1369.23076923077,0.807414807414807,32.8006556513719
1743439023259,12:37:03.259,-1,-1,1345.78754578755,0.806970806970807,32.8006556513719
1743439023278,12:37:03.278,-1,-1,1340.65934065934,0.806526806526806,32.8006556513719
1743439023298,12:37:03.298,-1,-1,1336.99633699634,0.806526806526806,32.8006556513719
1743439023317,12:37:03.317,-1,-1,1340.65934065934,0.807414807414807,32.8006556513719
1743439023337,12:37:03.337,-1,-1,1338.46153846154,0.808302808302808,32.8006556513719
1743439023356,12:37:03.356,-1,-1,1326.73992673993,0.81007881007881,32.8006556513719
1743439023376,12:37:03.376,-1,-1,1311.35531135531,0.811854811854812,32.8006556513719
1743439023395,12:37:03.395,-1,-1,1306.22710622711,0.811854811854812,32.8006556513719
1743439023415,12:37:03.415,-1,-1,1315.75091575092,0.811854811854812,32.8006556513719
1743439023434,12:37:03.434,-1,-1,1325.27472527473,0.813186813186813,32.8006556513719
1743439023454,12:37:03.454,-1,-1,1317.94871794872,0.814962814962815,32.8006556513719
1743439023473,12:37:03.473,-1,-1,1315.75091575092,0.816294816294816,32.8006556513719
1743439023493,12:37:03.493,-1,-1,1308.42490842491,0.816294816294816,32.8006556513719
1743439023512,12:37:03.512,-1,-1,1307.69230769231,0.814074814074814,32.8006556513719
1743439023532,12:37:03.532,-1,-1,1297.4358974359,0.814962814962815,32.8006556513719
1743439023551,12:37:03.551,-1,-1,1264.46886446886,0.816738816738817,32.8006556513719
1743439023571,12:37:03.571,-1,-1,1255.67765567766,0.818514818514818,32.8006556513719
1743439023590,12:37:03.590,-1,-1,1303.2967032967,0.819402819402819,32.8006556513719
1743439023610,12:37:03.610,-1,-1,1392.67399267399,0.821622821622822,32.8006556513719
1743439023629,12:37:03.629,-1,-1,1500.3663003663,0.821622821622822,32.8006556513719
1743439023649,12:37:03.649,-1,-1,1605.86080586081,0.821178821178821,32.8006556513719
1743439023668,12:37:03.668,-1,-1,1695.2380952381,0.822510822510823,32.8006556513719
1743439023688,12:37:03.688,-1,-1,1764.10256410256,0.823842823842824,32.8006556513719
1743439023707,12:37:03.707,-1,-1,1816.84981684982,0.824730824730825,32.8006556513719
1743439023727,12:37:03.727,-1,-1,1843.22344322344,0.823842823842824,32.8006556513719
1743439023746,12:37:03.746,-1,-1,1838.82783882784,0.825174825174825,32.8006556513719
1743439023766,12:37:03.766,-1,-1,1826.37362637363,0.826506826506826,32.8006556513719
1743439023785,12:37:03.785,-1,-1,1831.50183150183,0.827838827838828,32.8006556513719
1743439023805,12:37:03.805,-1,-1,1824.90842490842,0.828726828726829,32.8006556513719
1743439023824,12:37:03.824,-1,-1,1796.336996337,0.828282828282828,32.8006556513719
1743439023844,12:37:03.844,-1,-1,1771.42857142857,0.831834831834832,32.8006556513719
1743439023863,12:37:03.863,-1,-1,1730.40293040293,0.831834831834832,32.8006556513719
1743439023883,12:37:03.883,-1,-1,1678.38827838828,0.830946830946831,32.8006556513719
1743439023902,12:37:03.902,-1,-1,1654.21245421245,0.82961482961483,32.8006556513719
1743439023922,12:37:03.922,-1,-1,1633.69963369963,0.829170829170829,32.8006556513719
1743439023941,12:37:03.941,-1,-1,1606.59340659341,0.839382839382839,32.8006556513719
1743439023961,12:37:03.961,-1,-1,1580.21978021978,0.846930846930847,32.8006556513719
1743439023980,12:37:03.980,-1,-1,1553.84615384615,0.846930846930847,32.8006556513719
1743439024000,12:37:04.000,-1,-1,1528.93772893773,0.843378843378843,32.8006556513719
1743439024019,12:37:04.019,-1,-1,1505.49450549451,0.841158841158841,32.8256759111537
1743439024039,12:37:04.039,-1,-1,1483.51648351648,0.840714840714841,32.8256759111537
1743439024058,12:37:04.058,-1,-1,1454.94505494505,0.84027084027084,32.8256759111537
1743439024078,12:37:04.078,-1,-1,1434.43223443223,0.83982683982684,32.8256759111537
1743439024097,12:37:04.097,-1,-1,1423.44322344322,0.840714840714841,32.8256759111537
1743439024117,12:37:04.117,-1,-1,1409.52380952381,0.841602841602842,32.8256759111537
1743439024136,12:37:04.136,-1,-1,1402.1978021978,0.842490842490842,32.8256759111537
1743439024156,12:37:04.156,-1,-1,1399.2673992674,0.843378843378843,32.8256759111537
1743439024175,12:37:04.175,-1,-1,1387.54578754579,0.843822843822844,32.8256759111537
1743439024195,12:37:04.195,-1,-1,1372.16117216117,0.844266844266844,32.8256759111537
1743439024214,12:37:04.214,-1,-1,1344.32234432234,0.844710844710845,32.8256759111537
1743439024234,12:37:04.234,-1,-1,1321.61172161172,0.846486846486846,32.8256759111537
1743439024253,12:37:04.253,-1,-1,1311.35531135531,0.847818847818848,32.8256759111537
1743439024273,12:37:04.273,-1,-1,1309.89010989011,0.848706848706849,32.8256759111537
1743439024292,12:37:04.292,-1,-1,1294.50549450549,0.849150849150849,32.8256759111537
1743439024312,12:37:04.312,-1,-1,1282.78388278388,0.85003885003885,32.8256759111537
1743439024331,12:37:04.331,-1,-1,1279.12087912088,0.850926850926851,32.8256759111537
1743439024351,12:37:04.351,-1,-1,1274.72527472527,0.852258852258852,32.8256759111537
1743439024370,12:37:04.370,-1,-1,1254.21245421245,0.853146853146853,32.8256759111537
1743439024390,12:37:04.390,-1,-1,1238.82783882784,0.854478854478854,32.8256759111537
1743439024409,12:37:04.409,-1,-1,1230.76923076923,0.855810855810856,32.8256759111537
1743439024429,12:37:04.429,-1,-1,1254.21245421245,0.857142857142857,32.8256759111537
1743439024448,12:37:04.448,-1,-1,1312.82051282051,0.857586857586857,32.8256759111537
1743439024468,12:37:04.468,-1,-1,1399.2673992674,0.857586857586857,32.8256759111537
1743439024487,12:37:04.487,-1,-1,1496.7032967033,0.855366855366855,32.8256759111537
1743439024507,12:37:04.507,-1,-1,1610.98901098901,0.854034854034854,32.8256759111537
1743439024526,12:37:04.526,-1,-1,1717.21611721612,0.853590853590854,32.8256759111537
1743439024546,12:37:04.546,-1,-1,1793.40659340659,0.854034854034854,32.8256759111537
1743439024565,12:37:04.565,-1,-1,1830.76923076923,0.854922854922855,32.8256759111537
1743439024585,12:37:04.585,-1,-1,1819.78021978022,0.858474858474858,32.8256759111537
1743439024604,12:37:04.604,-1,-1,1801.4652014652,0.86025086025086,32.8256759111537
1743439024624,12:37:04.624,-1,-1,1799.2673992674,0.861582861582862,32.8256759111537
1743439024643,12:37:04.643,-1,-1,1807.32600732601,0.861582861582862,32.8256759111537
1743439024663,12:37:04.663,-1,-1,1805.12820512821,0.861582861582862,32.8256759111537
1743439024682,12:37:04.682,-1,-1,1784.61538461538,0.861138861138861,32.8256759111537
1743439024702,12:37:04.702,-1,-1,1747.98534798535,0.861582861582862,32.8256759111537
1743439024721,12:37:04.721,-1,-1,1704.0293040293,0.861138861138861,32.8256759111537
1743439024741,12:37:04.741,-1,-1,1663.73626373626,0.861138861138861,32.8256759111537
1743439024760,12:37:04.760,-1,-1,1619.04761904762,0.860694860694861,32.8256759111537
1743439024780,12:37:04.780,-1,-1,1586.81318681319,0.860694860694861,32.8256759111537
1743439024799,12:37:04.799,-1,-1,1570.69597069597,0.86025086025086,32.8256759111537
1743439024819,12:37:04.819,-1,-1,1572.16117216117,0.858918858918859,32.8256759111537
1743439024838,12:37:04.838,-1,-1,1567.03296703297,0.857586857586857,32.8256759111537
1743439024858,12:37:04.858,-1,-1,1548.71794871795,0.856254856254856,32.8256759111537
1743439024877,12:37:04.877,-1,-1,1528.93772893773,0.854478854478854,32.8256759111537
1743439024897,12:37:04.897,-1,-1,1514.28571428571,0.853590853590854,32.8256759111537
1743439024916,12:37:04.916,-1,-1,1490.10989010989,0.853146853146853,32.8256759111537
1743439024936,12:37:04.936,-1,-1,1467.39926739927,0.855366855366855,32.8256759111537
1743439024955,12:37:04.955,-1,-1,1444.68864468864,0.854922854922855,32.8256759111537
1743439024975,12:37:04.975,-1,-1,1416.84981684982,0.854034854034854,32.8256759111537
1743439024994,12:37:04.994,-1,-1,1388.27838827839,0.854034854034854,32.8256759111537
1743439025014,12:37:05.014,-1,-1,1361.17216117216,0.854478854478854,32.835683974321
1743439025033,12:37:05.033,-1,-1,1317.94871794872,0.864690864690865,32.835683974321
1743439025053,12:37:05.053,-1,-1,1286.44688644689,0.867798867798868,32.835683974321
1743439025072,12:37:05.072,-1,-1,1271.79487179487,0.869130869130869,32.835683974321
1743439025092,12:37:05.092,-1,-1,1260.07326007326,0.86957486957487,32.835683974321
1743439025111,12:37:05.111,-1,-1,1257.87545787546,0.86957486957487,32.835683974321
1743439025131,12:37:05.131,-1,-1,1252.01465201465,0.87046287046287,32.835683974321
1743439025150,12:37:05.150,-1,-1,1260.07326007326,0.864690864690865,32.835683974321
1743439025170,12:37:05.170,-1,-1,1260.80586080586,0.858918858918859,32.835683974321
1743439025189,12:37:05.189,-1,-1,1254.94505494505,0.856698856698857,32.835683974321
1743439025209,12:37:05.209,-1,-1,1256.41025641026,0.854034854034854,32.835683974321
1743439025228,12:37:05.228,-1,-1,1292.30769230769,0.852702852702853,32.835683974321
1743439025248,12:37:05.248,-1,-1,1379.48717948718,0.852258852258852,32.835683974321
1743439025267,12:37:05.267,-1,-1,1491.57509157509,0.852258852258852,32.835683974321
1743439025287,12:37:05.287,-1,-1,1600,0.854034854034854,32.835683974321
1743439025306,12:37:05.306,-1,-1,1705.49450549451,0.854034854034854,32.835683974321
1743439025326,12:37:05.326,-1,-1,1783.15018315018,0.854034854034854,32.835683974321
1743439025345,12:37:05.345,-1,-1,1812.45421245421,0.854034854034854,32.835683974321
1743439025365,12:37:05.365,-1,-1,1816.84981684982,0.854922854922855,32.835683974321
1743439025384,12:37:05.384,-1,-1,1816.84981684982,0.855810855810856,32.835683974321
1743439025404,12:37:05.404,-1,-1,1799.2673992674,0.857586857586857,32.835683974321
1743439025423,12:37:05.423,-1,-1,1791.20879120879,0.857142857142857,32.835683974321
1743439025443,12:37:05.443,-1,-1,1780.21978021978,0.87001887001887,32.835683974321
1743439025462,12:37:05.462,-1,-1,1767.76556776557,0.871794871794872,32.835683974321
1743439025482,12:37:05.482,-1,-1,1744.32234432234,0.871794871794872,32.835683974321
1743439025501,12:37:05.501,-1,-1,1701.8315018315,0.871794871794872,32.835683974321
1743439025521,12:37:05.521,-1,-1,1649.81684981685,0.871794871794872,32.835683974321
1743439025540,12:37:05.540,-1,-1,1594.87179487179,0.871350871350871,32.835683974321
1743439025560,12:37:05.560,-1,-1,1553.84615384615,0.871350871350871,32.835683974321
1743439025579,12:37:05.579,-1,-1,1531.86813186813,0.870906870906871,32.835683974321
1743439025599,12:37:05.599,-1,-1,1521.61172161172,0.870906870906871,32.835683974321
1743439025618,12:37:05.618,-1,-1,1509.15750915751,0.87046287046287,32.835683974321
1743439025638,12:37:05.638,-1,-1,1493.04029304029,0.87046287046287,32.835683974321
1743439025657,12:37:05.657,-1,-1,1469.59706959707,0.86957486957487,32.835683974321
1743439025677,12:37:05.677,-1,-1,1439.56043956044,0.870906870906871,32.835683974321
1743439025696,12:37:05.696,-1,-1,1411.72161172161,0.870906870906871,32.835683974321
1743439025716,12:37:05.716,-1,-1,1397.0695970696,0.871350871350871,32.835683974321
1743439025735,12:37:05.735,-1,-1,1371.42857142857,0.871794871794872,32.835683974321
1743439025755,12:37:05.755,-1,-1,1345.78754578755,0.870906870906871,32.835683974321
1743439025774,12:37:05.774,-1,-1,1330.40293040293,0.87046287046287,32.835683974321
1743439025794,12:37:05.794,-1,-1,1304.7619047619,0.869130869130869,32.835683974321
1743439025813,12:37:05.813,-1,-1,1295.2380952381,0.86957486957487,32.835683974321
1743439025833,12:37:05.833,-1,-1,1276.19047619048,0.87001887001887,32.835683974321
1743439025852,12:37:05.852,-1,-1,1282.78388278388,0.87001887001887,32.835683974321
1743439025872,12:37:05.872,-1,-1,1295.2380952381,0.87046287046287,32.835683974321
1743439025891,12:37:05.891,-1,-1,1293.77289377289,0.872238872238872,32.835683974321
1743439025911,12:37:05.911,-1,-1,1288.64468864469,0.873126873126873,32.835683974321
1743439025930,12:37:05.930,-1,-1,1279.12087912088,0.875790875790876,32.835683974321
1743439025950,12:37:05.950,-1,-1,1288.64468864469,0.877566877566877,32.835683974321
1743439025969,12:37:05.969,-1,-1,1342.85714285714,0.863802863802864,32.835683974321
1743439025989,12:37:05.989,-1,-1,1433.69963369963,0.86025086025086,32.835683974321
1743439026008,12:37:06.008,-1,-1,1531.13553113553,0.861582861582862,32.8557000308065
1743439026028,12:37:06.028,-1,-1,1638.09523809524,0.864690864690865,32.8557000308065
1743439026047,12:37:06.047,-1,-1,1717.94871794872,0.866022866022866,32.8557000308065
1743439026067,12:37:06.067,-1,-1,1763.36996336996,0.867798867798868,32.8557000308065
1743439026086,12:37:06.086,-1,-1,1789.74358974359,0.86957486957487,32.8557000308065
1743439026106,12:37:06.106,-1,-1,1824.17582417582,0.874014874014874,32.8557000308065
1743439026125,12:37:06.125,-1,-1,1834.43223443223,0.877566877566877,32.8557000308065
1743439026145,12:37:06.145,-1,-1,1827.10622710623,0.87978687978688,32.8557000308065
1743439026164,12:37:06.164,-1,-1,1808.79120879121,0.881118881118881,32.8557000308065
1743439026184,12:37:06.184,-1,-1,1788.27838827839,0.884226884226884,32.8557000308065
1743439026203,12:37:06.203,-1,-1,1749.45054945055,0.886446886446886,32.8557000308065
1743439026223,12:37:06.223,-1,-1,1687.17948717949,0.888666888666889,32.8557000308065
1743439026242,12:37:06.242,-1,-1,1613.18681318681,0.89044289044289,32.8557000308065
1743439026262,12:37:06.262,-1,-1,1544.32234432234,0.892218892218892,32.8557000308065
1743439026281,12:37:06.281,-1,-1,1498.1684981685,0.893106893106893,32.8557000308065
1743439026301,12:37:06.301,-1,-1,1484.24908424908,0.891774891774892,32.8557000308065
1743439026320,12:37:06.320,-1,-1,1480.58608058608,0.892218892218892,32.8557000308065
1743439026340,12:37:06.340,-1,-1,1473.99267399267,0.892218892218892,32.8557000308065
1743439026359,12:37:06.359,-1,-1,1466.66666666667,0.892218892218892,32.8557000308065
1743439026379,12:37:06.379,-1,-1,1463.00366300366,0.893106893106893,32.8557000308065
1743439026398,12:37:06.398,-1,-1,1448.35164835165,0.892662892662893,32.8557000308065
1743439026418,12:37:06.418,-1,-1,1424.90842490842,0.891774891774892,32.8557000308065
1743439026437,12:37:06.437,-1,-1,1402.1978021978,0.889554889554889,32.8557000308065
1743439026457,12:37:06.457,-1,-1,1365.56776556777,0.88999888999889,32.8557000308065
1743439026476,12:37:06.476,-1,-1,1324.54212454212,0.89044289044289,32.8557000308065
1743439026496,12:37:06.496,-1,-1,1282.78388278388,0.890886890886891,32.8557000308065
1743439026515,12:37:06.515,-1,-1,1263.00366300366,0.891330891330891,32.8557000308065
1743439026535,12:37:06.535,-1,-1,1257.14285714286,0.891330891330891,32.8557000308065
1743439026554,12:37:06.554,-1,-1,1254.94505494505,0.891330891330891,32.8557000308065
1743439026574,12:37:06.574,-1,-1,1255.67765567766,0.891774891774892,32.8557000308065
1743439026593,12:37:06.593,-1,-1,1247.61904761905,0.891774891774892,32.8557000308065
1743439026613,12:37:06.613,-1,-1,1246.88644688645,0.891774891774892,32.8557000308065
1743439026632,12:37:06.632,-1,-1,1259.34065934066,0.891330891330891,32.8557000308065
1743439026652,12:37:06.652,-1,-1,1279.85347985348,0.891330891330891,32.8557000308065
1743439026671,12:37:06.671,-1,-1,1316.48351648352,0.891330891330891,32.8557000308065
1743439026691,12:37:06.691,-1,-1,1377.28937728938,0.890886890886891,32.8557000308065
1743439026710,12:37:06.710,-1,-1,1456.41025641026,0.890886890886891,32.8557000308065
1743439026730,12:37:06.730,-1,-1,1548.71794871795,0.891330891330891,32.8557000308065
1743439026749,12:37:06.749,-1,-1,1608.79120879121,0.891330891330891,32.8557000308065
1743439026769,12:37:06.769,-1,-1,1654.21245421245,0.891330891330891,32.8557000308065
1743439026788,12:37:06.788,-1,-1,1692.30769230769,0.891330891330891,32.8557000308065
1743439026808,12:37:06.808,-1,-1,1715.75091575092,0.891330891330891,32.8557000308065
1743439026827,12:37:06.827,-1,-1,1710.62271062271,0.891330891330891,32.8557000308065
1743439026847,12:37:06.847,-1,-1,1685.71428571429,0.891774891774892,32.8557000308065
1743439026866,12:37:06.866,-1,-1,1673.26007326007,0.892662892662893,32.8557000308065
1743439026886,12:37:06.886,-1,-1,1652.01465201465,0.893106893106893,32.8557000308065
1743439026905,12:37:06.905,-1,-1,1628.57142857143,0.893106893106893,32.8557000308065
1743439026925,12:37:06.925,-1,-1,1583.15018315018,0.892662892662893,32.8557000308065
1743439026944,12:37:06.944,-1,-1,1526.00732600733,0.892662892662893,32.8557000308065
1743439026964,12:37:06.964,-1,-1,1483.51648351648,0.891774891774892,32.8557000308065
1743439026983,12:37:06.983,-1,-1,1444.68864468864,0.890886890886891,32.8557000308065
1743439027003,12:37:07.003,-1,-1,1411.72161172161,0.890886890886891,32.8757159941597
1743439027022,12:37:07.022,-1,-1,1395.6043956044,0.891774891774892,32.8757159941597
1743439027042,12:37:07.042,-1,-1,1384.61538461538,0.892218892218892,32.8757159941597
1743439027061,12:37:07.061,-1,-1,1378.75457875458,0.892218892218892,32.8757159941597
1743439027081,12:37:07.081,-1,-1,1371.42857142857,0.892218892218892,32.8757159941597
1743439027100,12:37:07.100,-1,-1,1374.35897435897,0.891774891774892,32.8757159941597
1743439027120,12:37:07.120,-1,-1,1378.75457875458,0.892218892218892,32.8757159941597
1743439027139,12:37:07.139,-1,-1,1375.82417582418,0.892218892218892,32.8757159941597
1743439027159,12:37:07.159,-1,-1,1358.97435897436,0.892218892218892,32.8757159941597
1743439027178,12:37:07.178,-1,-1,1329.67032967033,0.893106893106893,32.8757159941597
1743439027198,12:37:07.198,-1,-1,1287.17948717949,0.893106893106893,32.8757159941597
1743439027217,12:37:07.217,-1,-1,1265.20146520147,0.893106893106893,32.8757159941597
1743439027237,12:37:07.237,-1,-1,1253.47985347985,0.893106893106893,32.8757159941597
1743439027256,12:37:07.256,-1,-1,1241.75824175824,0.892662892662893,32.8757159941597
1743439027276,12:37:07.276,-1,-1,1224.90842490842,0.892218892218892,32.8757159941597
1743439027295,12:37:07.295,-1,-1,1207.32600732601,0.891774891774892,32.8757159941597
1743439027315,12:37:07.315,-1,-1,1189.01098901099,0.89044289044289,32.8757159941597
1743439027334,12:37:07.334,-1,-1,1169.23076923077,0.889110889110889,32.8757159941597
1743439027354,12:37:07.354,-1,-1,1157.50915750916,0.886890886890887,32.8757159941597
1743439027373,12:37:07.373,-1,-1,1151.64835164835,0.884670884670885,32.8757159941597
1743439027393,12:37:07.393,-1,-1,1155.31135531136,0.883338883338883,32.8757159941597
1743439027412,12:37:07.412,-1,-1,1152.38095238095,0.883338883338883,32.8757159941597
1743439027432,12:37:07.432,-1,-1,1188.27838827839,0.884226884226884,32.8757159941597
1743439027451,12:37:07.451,-1,-1,1266.66666666667,0.884670884670885,32.8757159941597
1743439027471,12:37:07.471,-1,-1,1346.52014652015,0.885114885114885,32.8757159941597
1743439027490,12:37:07.490,-1,-1,1419.04761904762,0.885114885114885,32.8757159941597
1743439027510,12:37:07.510,-1,-1,1498.1684981685,0.885114885114885,32.8757159941597
1743439027529,12:37:07.529,-1,-1,1543.58974358974,0.884670884670885,32.8757159941597
1743439027549,12:37:07.549,-1,-1,1571.42857142857,0.884670884670885,32.8757159941597
1743439027568,12:37:07.568,-1,-1,1597.0695970696,0.884670884670885,32.8757159941597
1743439027588,12:37:07.588,-1,-1,1608.79120879121,0.884670884670885,32.8757159941597
1743439027607,12:37:07.607,-1,-1,1597.0695970696,0.884226884226884,32.8757159941597
1743439027627,12:37:07.627,-1,-1,1554.57875457875,0.883782883782884,32.8757159941597
1743439027646,12:37:07.646,-1,-1,1509.15750915751,0.883338883338883,32.8757159941597
1743439027666,12:37:07.666,-1,-1,1479.85347985348,0.882006882006882,32.8757159941597
1743439027685,12:37:07.685,-1,-1,1449.81684981685,0.880674880674881,32.8757159941597
1743439027705,12:37:07.705,-1,-1,1425.64102564103,0.879342879342879,32.8757159941597
1743439027724,12:37:07.724,-1,-1,1389.01098901099,0.878898878898879,32.8757159941597
1743439027744,12:37:07.744,-1,-1,1358.24175824176,0.877122877122877,32.8757159941597
1743439027763,12:37:07.763,-1,-1,1336.99633699634,0.876678876678877,32.8757159941597
1743439027783,12:37:07.783,-1,-1,1331.86813186813,0.876234876234876,32.8757159941597
1743439027802,12:37:07.802,-1,-1,1322.34432234432,0.875790875790876,32.8757159941597
1743439027822,12:37:07.822,-1,-1,1296.7032967033,0.875346875346875,32.8757159941597
1743439027841,12:37:07.841,-1,-1,1290.84249084249,0.874902874902875,32.8757159941597
1743439027861,12:37:07.861,-1,-1,1287.17948717949,0.872682872682873,32.8757159941597
1743439027880,12:37:07.880,-1,-1,1279.12087912088,0.86957486957487,32.8757159941597
1743439027900,12:37:07.900,-1,-1,1264.46886446886,0.862026862026862,32.8757159941597
1743439027919,12:37:07.919,-1,-1,1247.61904761905,0.858474858474858,32.8757159941597
1743439027939,12:37:07.939,-1,-1,1232.96703296703,0.853590853590854,32.8757159941597
1743439027958,12:37:07.958,-1,-1,1220.51282051282,0.846042846042846,32.8757159941597
1743439027978,12:37:07.978,-1,-1,1213.18681318681,0.841602841602842,32.8757159941597
1743439027997,12:37:07.997,-1,-1,1207.32600732601,0.838494838494838,32.900735817384
1743439028017,12:37:08.017,-1,-1,1194.13919413919,0.832278832278832,32.900735817384
1743439028036,12:37:08.036,-1,-1,1183.15018315018,0.829170829170829,32.900735817384
1743439028056,12:37:08.056,-1,-1,1187.54578754579,0.827838827838828,32.900735817384
1743439028075,12:37:08.075,-1,-1,1200,0.827394827394827,32.900735817384
1743439028095,12:37:08.095,-1,-1,1214.65201465201,0.826062826062826,32.900735817384
1743439028114,12:37:08.114,-1,-1,1215.38461538462,0.826062826062826,32.900735817384
1743439028134,12:37:08.134,-1,-1,1200,0.825618825618826,32.900735817384
1743439028153,12:37:08.153,-1,-1,1178.75457875458,0.825618825618826,32.900735817384
1743439028173,12:37:08.173,-1,-1,1170.69597069597,0.826506826506826,32.900735817384
1743439028192,12:37:08.192,-1,-1,1185.34798534799,0.826950826950827,32.900735817384
1743439028212,12:37:08.212,-1,-1,1206.59340659341,0.827838827838828,32.900735817384
1743439028231,12:37:08.231,-1,-1,1239.56043956044,0.827394827394827,32.900735817384
1743439028251,12:37:08.251,-1,-1,1283.51648351648,0.827394827394827,32.900735817384
1743439028270,12:37:08.270,-1,-1,1337.72893772894,0.827394827394827,32.900735817384
1743439028290,12:37:08.290,-1,-1,1394.87179487179,0.826062826062826,32.900735817384
1743439028309,12:37:08.309,-1,-1,1439.56043956044,0.824730824730825,32.900735817384
1743439028329,12:37:08.329,-1,-1,1471.06227106227,0.824286824286824,32.900735817384
1743439028348,12:37:08.348,-1,-1,1495.2380952381,0.826950826950827,32.900735817384
1743439028368,12:37:08.368,-1,-1,1494.50549450549,0.826950826950827,32.900735817384
1743439028387,12:37:08.387,-1,-1,1479.85347985348,0.827838827838828,32.900735817384
1743439028407,12:37:08.407,-1,-1,1467.39926739927,0.828282828282828,32.900735817384
1743439028426,12:37:08.426,-1,-1,1453.47985347985,0.829170829170829,32.900735817384
1743439028446,12:37:08.446,-1,-1,1446.88644688645,0.83005883005883,32.900735817384
1743439028465,12:37:08.465,-1,-1,1425.64102564103,0.830502830502831,32.900735817384
1743439028485,12:37:08.485,-1,-1,1400.7326007326,0.830946830946831,32.900735817384
1743439028504,12:37:08.504,-1,-1,1364.83516483516,0.830946830946831,32.900735817384
1743439028524,12:37:08.524,-1,-1,1323.07692307692,0.830502830502831,32.900735817384
1743439028543,12:37:08.543,-1,-1,1292.30769230769,0.830502830502831,32.900735817384
1743439028563,12:37:08.563,-1,-1,1273.99267399267,0.830502830502831,32.900735817384
1743439028582,12:37:08.582,-1,-1,1251.28205128205,0.830946830946831,32.900735817384
1743439028602,12:37:08.602,-1,-1,1255.67765567766,0.830946830946831,32.900735817384
1743439028621,12:37:08.621,-1,-1,1268.13186813187,0.831390831390831,32.900735817384
1743439028641,12:37:08.641,-1,-1,1275.45787545788,0.830946830946831,32.900735817384
1743439028660,12:37:08.660,-1,-1,1268.13186813187,0.831390831390831,32.900735817384
1743439028680,12:37:08.680,-1,-1,1265.20146520147,0.831834831834832,32.900735817384
1743439028699,12:37:08.699,-1,-1,1257.87545787546,0.833166833166833,32.900735817384
1743439028719,12:37:08.719,-1,-1,1254.21245421245,0.833610833610834,32.900735817384
1743439028738,12:37:08.738,-1,-1,1259.34065934066,0.834054834054834,32.900735817384
1743439028758,12:37:08.758,-1,-1,1249.81684981685,0.833610833610834,32.900735817384
1743439028777,12:37:08.777,-1,-1,1232.23443223443,0.834054834054834,32.900735817384
1743439028797,12:37:08.797,-1,-1,1204.3956043956,0.833610833610834,32.900735817384
1743439028816,12:37:08.816,-1,-1,1183.88278388278,0.833610833610834,32.900735817384
1743439028836,12:37:08.836,-1,-1,1170.69597069597,0.834054834054834,32.900735817384
1743439028855,12:37:08.855,-1,-1,1168.49816849817,0.833610833610834,32.900735817384
1743439028875,12:37:08.875,-1,-1,1169.96336996337,0.833610833610834,32.900735817384
1743439028894,12:37:08.894,-1,-1,1161.17216117216,0.834054834054834,32.900735817384
1743439028914,12:37:08.914,-1,-1,1160.43956043956,0.834498834498834,32.900735817384
1743439028933,12:37:08.933,-1,-1,1172.89377289377,0.835386835386835,32.900735817384
1743439028953,12:37:08.953,-1,-1,1186.08058608059,0.835830835830836,32.900735817384
1743439028972,12:37:08.972,-1,-1,1188.27838827839,0.835830835830836,32.900735817384
1743439028992,12:37:08.992,-1,-1,1178.02197802198,0.836274836274836,32.9257554950891
1743439029011,12:37:09.011,-1,-1,1166.30036630037,0.836274836274836,32.9257554950891
1743439029031,12:37:09.031,-1,-1,1147.25274725275,0.836274836274836,32.9257554950891
1743439029050,12:37:09.050,-1,-1,1140.65934065934,0.836274836274836,32.9257554950891
1743439029070,12:37:09.070,-1,-1,1149.45054945055,0.836718836718837,32.9257554950891
1743439029089,12:37:09.089,-1,-1,1169.23076923077,0.836718836718837,32.9257554950891
1743439029109,12:37:09.109,-1,-1,1191.94139194139,0.836718836718837,32.9257554950891
1743439029128,12:37:09.128,-1,-1,1226.37362637363,0.837162837162837,32.9257554950891
1743439029148,12:37:09.148,-1,-1,1270.32967032967,0.837162837162837,32.9257554950891
1743439029167,12:37:09.167,-1,-1,1315.01831501831,0.837162837162837,32.9257554950891
1743439029187,12:37:09.187,-1,-1,1350.91575091575,0.837162837162837,32.9257554950891
1743439029206,12:37:09.206,-1,-1,1389.74358974359,0.837162837162837,32.9257554950891
1743439029226,12:37:09.226,-1,-1,1406.59340659341,0.837162837162837,32.9257554950891
1743439029245,12:37:09.245,-1,-1,1422.71062271062,0.837162837162837,32.9257554950891
1743439029265,12:37:09.265,-1,-1,1432.96703296703,0.837162837162837,32.9257554950891
1743439029284,12:37:09.284,-1,-1,1432.23443223443,0.837162837162837,32.9257554950891
1743439029304,12:37:09.304,70,-1,1427.10622710623,0.837162837162837,32.9257554950891
1743439029323,12:37:09.323,70,-1,1434.43223443223,0.838938838938839,32.9257554950891
1743439029343,12:37:09.343,70,-1,1428.57142857143,0.84027084027084,32.9257554950891
1743439029362,12:37:09.362,70,-1,1416.84981684982,0.842046842046842,32.9257554950891
1743439029382,12:37:09.382,70,-1,1396.336996337,0.841602841602842,32.9257554950891
1743439029401,12:37:09.401,70,-1,1378.75457875458,0.843822843822844,32.9257554950891
1743439029421,12:37:09.421,70,-1,1372.16117216117,0.85048285048285,32.9257554950891
1743439029440,12:37:09.440,70,-1,1354.57875457875,0.850926850926851,32.9257554950891
1743439029460,12:37:09.460,70,-1,1341.39194139194,0.85003885003885,32.9257554950891
1743439029479,12:37:09.479,70,-1,1319.41391941392,0.85003885003885,32.9257554950891
1743439029499,12:37:09.499,70,-1,1285.71428571429,0.85003885003885,32.9257554950891
1743439029518,12:37:09.518,70,-1,1264.46886446886,0.85048285048285,32.9257554950891
1743439029538,12:37:09.538,70,-1,1266.66666666667,0.85048285048285,32.9257554950891
1743439029557,12:37:09.557,70,-1,1260.07326007326,0.851370851370851,32.9257554950891
1743439029577,12:37:09.577,70,-1,1265.20146520147,0.851814851814852,32.9257554950891
1743439029596,12:37:09.596,70,-1,1269.59706959707,0.853590853590854,32.9257554950891
1743439029616,12:37:09.616,70,-1,1257.14285714286,0.856698856698857,32.9257554950891
1743439029635,12:37:09.635,70,-1,1252.74725274725,0.858030858030858,32.9257554950891
1743439029655,12:37:09.655,70,-1,1247.61904761905,0.858474858474858,32.9257554950891
1743439029674,12:37:09.674,70,-1,1228.57142857143,0.858918858918859,32.9257554950891
1743439029694,12:37:09.694,70,-1,1213.91941391941,0.859362859362859,32.9257554950891
1743439029713,12:37:09.713,70,-1,1216.11721611722,0.859362859362859,32.9257554950891
1743439029733,12:37:09.733,70,-1,1216.11721611722,0.859362859362859,32.9257554950891
1743439029752,12:37:09.752,70,-1,1221.97802197802,0.85980685980686,32.9257554950891
1743439029772,12:37:09.772,70,-1,1227.10622710623,0.85980685980686,32.9257554950891
1743439029791,12:37:09.791,70,-1,1215.38461538462,0.85980685980686,32.9257554950891
1743439029811,12:37:09.811,70,-1,1216.11721611722,0.860694860694861,32.9257554950891
1743439029830,12:37:09.830,70,-1,1217.58241758242,0.861138861138861,32.9257554950891
1743439029850,12:37:09.850,70,-1,1221.24542124542,0.861138861138861,32.9257554950891
1743439029869,12:37:09.869,70,-1,1216.11721611722,0.861138861138861,32.9257554950891
1743439029889,12:37:09.889,70,-1,1198.5347985348,0.861138861138861,32.9257554950891
1743439029908,12:37:09.908,70,-1,1195.6043956044,0.861138861138861,32.9257554950891
1743439029928,12:37:09.928,70,-1,1192.67399267399,0.861138861138861,32.9257554950891
1743439029947,12:37:09.947,70,-1,1199.2673992674,0.861138861138861,32.9257554950891
1743439029967,12:37:09.967,70,-1,1208.05860805861,0.861138861138861,32.9257554950891
1743439029986,12:37:09.986,70,-1,1214.65201465201,0.861138861138861,32.9357633254258
1743439030006,12:37:10.006,70,-1,1219.04761904762,0.861138861138861,32.9357633254258
1743439030025,12:37:10.025,70,-1,1237.36263736264,0.861138861138861,32.9357633254258
1743439030045,12:37:10.045,77,-1,1273.26007326007,0.861138861138861,32.9357633254258
1743439030064,12:37:10.064,77,-1,1317.94871794872,0.861582861582862,32.9357633254258
1743439030084,12:37:10.084,77,-1,1361.90476190476,0.861138861138861,32.9357633254258
1743439030103,12:37:10.103,77,-1,1389.74358974359,0.861582861582862,32.9357633254258
1743439030123,12:37:10.123,77,-1,1409.52380952381,0.861582861582862,32.9357633254258
1743439030142,12:37:10.142,77,-1,1419.78021978022,0.861582861582862,32.9357633254258
1743439030162,12:37:10.162,77,-1,1424.17582417582,0.861582861582862,32.9357633254258
1743439030181,12:37:10.181,77,-1,1421.24542124542,0.861582861582862,32.9357633254258
1743439030201,12:37:10.201,77,-1,1410.98901098901,0.861582861582862,32.9357633254258
1743439030220,12:37:10.220,77,-1,1392.67399267399,0.861582861582862,32.9357633254258
1743439030240,12:37:10.240,77,-1,1382.41758241758,0.861582861582862,32.9357633254258
1743439030259,12:37:10.259,77,-1,1385.34798534799,0.861582861582862,32.9357633254258
1743439030279,12:37:10.279,77,-1,1378.75457875458,0.862026862026862,32.9357633254258
1743439030298,12:37:10.298,77,-1,1371.42857142857,0.861582861582862,32.9357633254258
1743439030318,12:37:10.318,77,-1,1357.50915750916,0.862026862026862,32.9357633254258
1743439030337,12:37:10.337,77,-1,1345.05494505494,0.862470862470862,32.9357633254258
1743439030357,12:37:10.357,77,-1,1338.46153846154,0.862026862026862,32.9357633254258
1743439030376,12:37:10.376,77,-1,1338.46153846154,0.862026862026862,32.9357633254258
1743439030396,12:37:10.396,77,-1,1340.65934065934,0.862470862470862,32.9357633254258
1743439030415,12:37:10.415,77,-1,1344.32234432234,0.862026862026862,32.9357633254258
1743439030435,12:37:10.435,77,-1,1330.40293040293,0.862026862026862,32.9357633254258
1743439030454,12:37:10.454,77,-1,1322.34432234432,0.862470862470862,32.9357633254258
1743439030474,12:37:10.474,77,-1,1323.80952380952,0.862026862026862,32.9357633254258
1743439030493,12:37:10.493,77,-1,1323.07692307692,0.862026862026862,32.9357633254258
1743439030513,12:37:10.513,77,-1,1308.42490842491,0.862026862026862,32.9357633254258
1743439030532,12:37:10.532,77,-1,1302.5641025641,0.862470862470862,32.9357633254258
1743439030552,12:37:10.552,77,-1,1298.1684981685,0.862470862470862,32.9357633254258
1743439030571,12:37:10.571,77,-1,1285.71428571429,0.862026862026862,32.9357633254258
1743439030591,12:37:10.591,77,-1,1270.32967032967,0.862470862470862,32.9357633254258
1743439030610,12:37:10.610,77,-1,1238.09523809524,0.862026862026862,32.9357633254258
1743439030630,12:37:10.630,77,-1,1221.24542124542,0.862470862470862,32.9357633254258
1743439030649,12:37:10.649,77,-1,1227.10622710623,0.862026862026862,32.9357633254258
1743439030669,12:37:10.669,77,-1,1235.89743589744,0.862470862470862,32.9357633254258
1743439030688,12:37:10.688,77,-1,1241.75824175824,0.862470862470862,32.9357633254258
1743439030708,12:37:10.708,77,-1,1238.09523809524,0.862470862470862,32.9357633254258
1743439030727,12:37:10.727,77,-1,1234.43223443223,0.862470862470862,32.9357633254258
1743439030747,12:37:10.747,81,-1,1233.69963369963,0.862470862470862,32.9357633254258
1743439030766,12:37:10.766,81,-1,1225.64102564103,0.862914862914863,32.9357633254258
1743439030786,12:37:10.786,81,-1,1231.50183150183,0.862914862914863,32.9357633254258
1743439030805,12:37:10.805,81,-1,1224.17582417582,0.862470862470862,32.9357633254258
1743439030825,12:37:10.825,81,-1,1214.65201465201,0.862470862470862,32.9357633254258
1743439030844,12:37:10.844,81,-1,1217.58241758242,0.862914862914863,32.9357633254258
1743439030864,12:37:10.864,81,-1,1223.44322344322,0.862914862914863,32.9357633254258
1743439030883,12:37:10.883,81,-1,1231.50183150183,0.862470862470862,32.9357633254258
1743439030903,12:37:10.903,81,-1,1227.10622710623,0.862470862470862,32.9357633254258
1743439030922,12:37:10.922,81,-1,1224.17582417582,0.862470862470862,32.9357633254258
1743439030942,12:37:10.942,81,-1,1232.23443223443,0.862914862914863,32.9357633254258
1743439030961,12:37:10.961,81,-1,1250.54945054945,0.862470862470862,32.9357633254258
1743439030981,12:37:10.981,81,-1,1287.17948717949,0.862914862914863,32.9507750272751
1743439031000,12:37:11.000,81,-1,1352.38095238095,0.862914862914863,32.9507750272751
1743439031020,12:37:11.020,81,-1,1405.12820512821,0.862914862914863,32.9507750272751
1743439031039,12:37:11.039,81,-1,1448.35164835165,0.862470862470862,32.9507750272751
1743439031059,12:37:11.059,81,-1,1479.12087912088,0.862914862914863,32.9507750272751
1743439031078,12:37:11.078,81,-1,1489.37728937729,0.862914862914863,32.9507750272751
1743439031098,12:37:11.098,81,-1,1487.91208791209,0.862914862914863,32.9507750272751
1743439031117,12:37:11.117,81,-1,1468.86446886447,0.862914862914863,32.9507750272751
1743439031137,12:37:11.137,81,-1,1463.73626373626,0.862914862914863,32.9507750272751
1743439031156,12:37:11.156,81,-1,1465.93406593407,0.862914862914863,32.9507750272751
1743439031176,12:37:11.176,81,-1,1458.60805860806,0.862914862914863,32.9507750272751
1743439031195,12:37:11.195,81,-1,1460.80586080586,0.862914862914863,32.9507750272751
1743439031215,12:37:11.215,81,-1,1464.46886446886,0.862470862470862,32.9507750272751
1743439031234,12:37:11.234,81,-1,1453.47985347985,0.862470862470862,32.9507750272751
1743439031254,12:37:11.254,81,-1,1431.50183150183,0.862470862470862,32.9507750272751
1743439031273,12:37:11.273,81,-1,1420.51282051282,0.862470862470862,32.9507750272751
1743439031293,12:37:11.293,81,-1,1410.25641025641,0.862470862470862,32.9507750272751
1743439031312,12:37:11.312,81,-1,1401.4652014652,0.862470862470862,32.9507750272751
1743439031332,12:37:11.332,81,-1,1398.5347985348,0.862470862470862,32.9507750272751
1743439031351,12:37:11.351,81,-1,1401.4652014652,0.862470862470862,32.9507750272751
1743439031371,12:37:11.371,81,-1,1397.0695970696,0.862470862470862,32.9507750272751
1743439031390,12:37:11.390,81,-1,1394.87179487179,0.862470862470862,32.9507750272751
1743439031410,12:37:11.410,81,-1,1388.27838827839,0.862470862470862,32.9507750272751
1743439031429,12:37:11.429,81,-1,1371.42857142857,0.862470862470862,32.9507750272751
1743439031449,12:37:11.449,81,-1,1347.25274725275,0.862470862470862,32.9507750272751
1743439031468,12:37:11.468,81,-1,1333.33333333333,0.862470862470862,32.9507750272751
1743439031488,12:37:11.488,81,-1,1322.34432234432,0.862470862470862,32.9507750272751
1743439031507,12:37:11.507,85,-1,1325.27472527473,0.862470862470862,32.9507750272751
1743439031527,12:37:11.527,85,-1,1314.28571428571,0.862470862470862,32.9507750272751
1743439031546,12:37:11.546,85,-1,1312.08791208791,0.862914862914863,32.9507750272751
1743439031566,12:37:11.566,85,-1,1326.00732600733,0.862914862914863,32.9507750272751
1743439031585,12:37:11.585,85,-1,1322.34432234432,0.862914862914863,32.9507750272751
1743439031605,12:37:11.605,85,-1,1304.7619047619,0.862914862914863,32.9507750272751
1743439031624,12:37:11.624,85,-1,1291.57509157509,0.862914862914863,32.9507750272751
1743439031644,12:37:11.644,85,-1,1284.24908424908,0.862914862914863,32.9507750272751
1743439031663,12:37:11.663,85,-1,1271.79487179487,0.862470862470862,32.9507750272751
1743439031683,12:37:11.683,85,-1,1265.93406593407,0.862914862914863,32.9507750272751
1743439031702,12:37:11.702,85,-1,1265.20146520147,0.862914862914863,32.9507750272751
1743439031722,12:37:11.722,85,-1,1268.13186813187,0.862470862470862,32.9507750272751
1743439031741,12:37:11.741,85,-1,1284.24908424908,0.862914862914863,32.9507750272751
1743439031761,12:37:11.761,85,-1,1285.71428571429,0.862914862914863,32.9507750272751
1743439031780,12:37:11.780,85,-1,1277.65567765568,0.862914862914863,32.9507750272751
1743439031800,12:37:11.800,85,-1,1268.86446886447,0.862914862914863,32.9507750272751
1743439031819,12:37:11.819,85,-1,1268.13186813187,0.862470862470862,32.9507750272751
1743439031839,12:37:11.839,85,-1,1272.52747252747,0.862914862914863,32.9507750272751
1743439031858,12:37:11.858,85,-1,1266.66666666667,0.862914862914863,32.9507750272751
1743439031878,12:37:11.878,85,-1,1269.59706959707,0.862914862914863,32.9507750272751
1743439031897,12:37:11.897,85,-1,1293.04029304029,0.862914862914863,32.9507750272751
1743439031917,12:37:11.917,85,-1,1342.85714285714,0.862470862470862,32.9507750272751
1743439031936,12:37:11.936,85,-1,1396.336996337,0.862914862914863,32.9507750272751
1743439031956,12:37:11.956,85,-1,1453.47985347985,0.862470862470862,32.9507750272751
1743439031975,12:37:11.975,85,-1,1524.54212454212,0.862914862914863,32.9757944139419
1743439031995,12:37:11.995,85,-1,1576.55677655678,0.862470862470862,32.9757944139419
1743439032014,12:37:12.014,85,-1,1602.1978021978,0.862914862914863,32.9757944139419
1743439032034,12:37:12.034,85,-1,1602.9304029304,0.862470862470862,32.9757944139419
1743439032053,12:37:12.053,85,-1,1603.663003663,0.862470862470862,32.9757944139419
1743439032073,12:37:12.073,85,-1,1608.79120879121,0.862470862470862,32.9757944139419
1743439032092,12:37:12.092,85,-1,1608.05860805861,0.862470862470862,32.9757944139419
1743439032112,12:37:12.112,85,-1,1609.52380952381,0.862470862470862,32.9757944139419
1743439032132,12:37:12.131,85,-1,1621.24542124542,0.862470862470862,32.9757944139419
1743439032151,12:37:12.151,85,-1,1617.58241758242,0.862470862470862,32.9757944139419
1743439032171,12:37:12.170,85,-1,1595.6043956044,0.862026862026862,32.9757944139419
1743439032190,12:37:12.190,85,-1,1558.97435897436,0.862026862026862,32.9757944139419
1743439032210,12:37:12.209,85,-1,1511.35531135531,0.862026862026862,32.9757944139419
1743439032229,12:37:12.229,85,-1,1488.64468864469,0.862026862026862,32.9757944139419
1743439032249,12:37:12.249,85,-1,1488.64468864469,0.861582861582862,32.9757944139419
1743439032268,12:37:12.268,85,-1,1481.31868131868,0.862026862026862,32.9757944139419
1743439032288,12:37:12.288,79,-1,1486.44688644689,0.861582861582862,32.9757944139419
1743439032307,12:37:12.307,79,-1,1498.1684981685,0.861582861582862,32.9757944139419
1743439032327,12:37:12.327,79,-1,1487.91208791209,0.861582861582862,32.9757944139419
1743439032346,12:37:12.346,79,-1,1473.26007326007,0.861138861138861,32.9757944139419
1743439032366,12:37:12.366,79,-1,1467.39926739927,0.861582861582862,32.9757944139419
1743439032385,12:37:12.385,79,-1,1452.74725274725,0.861582861582862,32.9757944139419
1743439032405,12:37:12.405,79,-1,1427.10622710623,0.861138861138861,32.9757944139419
1743439032424,12:37:12.424,79,-1,1410.25641025641,0.861138861138861,32.9757944139419
1743439032444,12:37:12.444,79,-1,1397.8021978022,0.861138861138861,32.9757944139419
1743439032463,12:37:12.463,79,-1,1386.08058608059,0.860694860694861,32.9757944139419
1743439032483,12:37:12.483,79,-1,1367.03296703297,0.860694860694861,32.9757944139419
1743439032502,12:37:12.502,79,-1,1347.98534798535,0.86025086025086,32.9757944139419
1743439032522,12:37:12.522,79,-1,1350.18315018315,0.86025086025086,32.9757944139419
1743439032541,12:37:12.541,79,-1,1362.63736263736,0.86025086025086,32.9757944139419
1743439032561,12:37:12.561,79,-1,1378.75457875458,0.85980685980686,32.9757944139419
1743439032580,12:37:12.580,79,-1,1373.62637362637,0.859362859362859,32.9757944139419
1743439032600,12:37:12.600,79,-1,1347.25274725275,0.85980685980686,32.9757944139419
1743439032619,12:37:12.619,79,-1,1339.19413919414,0.85980685980686,32.9757944139419
1743439032639,12:37:12.639,79,-1,1331.86813186813,0.85980685980686,32.9757944139419
1743439032658,12:37:12.658,79,-1,1320.14652014652,0.859362859362859,32.9757944139419
1743439032678,12:37:12.678,79,-1,1309.15750915751,0.859362859362859,32.9757944139419
1743439032697,12:37:12.697,79,-1,1300.3663003663,0.859362859362859,32.9757944139419
1743439032717,12:37:12.717,79,-1,1297.4358974359,0.859362859362859,32.9757944139419
1743439032736,12:37:12.736,79,-1,1303.2967032967,0.859362859362859,32.9757944139419
1743439032756,12:37:12.756,79,-1,1301.0989010989,0.859362859362859,32.9757944139419
1743439032775,12:37:12.775,79,-1,1291.57509157509,0.859362859362859,32.9757944139419
1743439032795,12:37:12.795,79,-1,1297.4358974359,0.859362859362859,32.9757944139419
1743439032814,12:37:12.814,79,-1,1317.94871794872,0.859362859362859,32.9757944139419
1743439032834,12:37:12.834,79,-1,1356.04395604396,0.859362859362859,32.9757944139419
1743439032853,12:37:12.853,79,-1,1427.10622710623,0.859362859362859,32.9757944139419
1743439032873,12:37:12.873,79,-1,1510.62271062271,0.858918858918859,32.9757944139419
1743439032892,12:37:12.892,79,-1,1601.4652014652,0.858918858918859,32.9757944139419
1743439032912,12:37:12.912,79,-1,1684.24908424908,0.858918858918859,32.9757944139419
1743439032931,12:37:12.931,79,-1,1750.18315018315,0.858918858918859,32.9757944139419
1743439032951,12:37:12.951,79,-1,1801.4652014652,0.858918858918859,32.9757944139419
1743439032970,12:37:12.970,79,-1,1818.31501831502,0.858918858918859,32.9908059760928
1743439032990,12:37:12.990,79,-1,1813.91941391941,0.858474858474858,32.9908059760928
1743439033009,12:37:13.009,79,-1,1797.8021978022,0.858918858918859,32.9908059760928
1743439033029,12:37:13.029,79,-1,1786.08058608059,0.858918858918859,32.9908059760928
1743439033048,12:37:13.048,79,-1,1779.48717948718,0.858918858918859,32.9908059760928
1743439033068,12:37:13.068,79,-1,1773.62637362637,0.858474858474858,32.9908059760928
1743439033087,12:37:13.087,79,-1,1756.04395604396,0.858474858474858,32.9908059760928
1743439033107,12:37:13.107,79,-1,1720.14652014652,0.858030858030858,32.9908059760928
1743439033126,12:37:13.126,79,-1,1694.50549450549,0.858030858030858,32.9908059760928
1743439033146,12:37:13.146,79,-1,1671.79487179487,0.858030858030858,32.9908059760928
1743439033165,12:37:13.165,79,-1,1657.87545787546,0.858030858030858,32.9908059760928
1743439033185,12:37:13.185,79,-1,1638.09523809524,0.858030858030858,32.9908059760928
1743439033204,12:37:13.204,77,-1,1617.58241758242,0.858030858030858,32.9908059760928
1743439033224,12:37:13.224,77,-1,1603.663003663,0.857586857586857,32.9908059760928
1743439033243,12:37:13.243,77,-1,1591.20879120879,0.857586857586857,32.9908059760928
1743439033263,12:37:13.263,77,-1,1575.09157509157,0.857586857586857,32.9908059760928
1743439033282,12:37:13.282,77,-1,1560.43956043956,0.857586857586857,32.9908059760928
1743439033302,12:37:13.302,77,-1,1551.64835164835,0.857586857586857,32.9908059760928
1743439033321,12:37:13.321,77,-1,1532.60073260073,0.857586857586857,32.9908059760928
1743439033341,12:37:13.341,77,-1,1504.7619047619,0.857586857586857,32.9908059760928
1743439033360,12:37:13.360,77,-1,1470.32967032967,0.857586857586857,32.9908059760928
1743439033380,12:37:13.380,77,-1,1447.61904761905,0.857142857142857,32.9908059760928
1743439033399,12:37:13.399,77,-1,1432.23443223443,0.857142857142857,32.9908059760928
1743439033419,12:37:13.419,77,-1,1426.37362637363,0.857142857142857,32.9908059760928
1743439033438,12:37:13.438,77,-1,1423.44322344322,0.856698856698857,32.9908059760928
1743439033458,12:37:13.458,77,-1,1413.91941391941,0.856698856698857,32.9908059760928
1743439033477,12:37:13.477,77,-1,1398.5347985348,0.856698856698857,32.9908059760928
1743439033497,12:37:13.497,77,-1,1386.08058608059,0.856698856698857,32.9908059760928
1743439033516,12:37:13.516,77,-1,1381.68498168498,0.856698856698857,32.9908059760928
1743439033536,12:37:13.536,77,-1,1370.69597069597,0.856254856254856,32.9908059760928
1743439033555,12:37:13.555,77,-1,1351.64835164835,0.856254856254856,32.9908059760928
1743439033575,12:37:13.575,77,-1,1340.65934065934,0.856254856254856,32.9908059760928
1743439033594,12:37:13.594,77,-1,1336.99633699634,0.856254856254856,32.9908059760928
1743439033614,12:37:13.614,77,-1,1339.19413919414,0.856254856254856,32.9908059760928
1743439033633,12:37:13.633,77,-1,1331.86813186813,0.855810855810856,32.9908059760928
1743439033653,12:37:13.653,77,-1,1324.54212454212,0.855810855810856,32.9908059760928
1743439033672,12:37:13.672,77,-1,1316.48351648352,0.855810855810856,32.9908059760928
1743439033692,12:37:13.692,77,-1,1317.21611721612,0.855810855810856,32.9908059760928
1743439033711,12:37:13.711,77,-1,1326.00732600733,0.855810855810856,32.9908059760928
1743439033731,12:37:13.731,77,-1,1332.60073260073,0.855810855810856,32.9908059760928
1743439033750,12:37:13.750,77,-1,1370.69597069597,0.855366855366855,32.9908059760928
1743439033770,12:37:13.770,77,-1,1445.42124542125,0.855810855810856,32.9908059760928
1743439033789,12:37:13.789,77,-1,1553.11355311355,0.855366855366855,32.9908059760928
1743439033809,12:37:13.809,77,-1,1679.12087912088,0.855366855366855,32.9908059760928
1743439033828,12:37:13.828,77,-1,1786.81318681319,0.854922854922855,32.9908059760928
1743439033848,12:37:13.848,77,-1,1863.00366300366,0.854922854922855,32.9908059760928
1743439033867,12:37:13.867,77,-1,1912.08791208791,0.854922854922855,32.9908059760928
1743439033887,12:37:13.887,77,-1,1944.32234432234,0.854478854478854,32.9908059760928
1743439033906,12:37:13.906,77,-1,1955.31135531136,0.854478854478854,32.9908059760928
1743439033926,12:37:13.926,77,-1,1948.71794871795,0.854478854478854,32.9908059760928
1743439033945,12:37:13.945,77,-1,1936.99633699634,0.854478854478854,32.9908059760928
1743439033965,12:37:13.965,77,-1,1916.48351648352,0.854478854478854,32.9958098185016
1743439033984,12:37:13.984,77,-1,1892.30769230769,0.854034854034854,32.9958098185016
1743439034004,12:37:14.004,77,-1,1843.22344322344,0.854478854478854,32.9958098185016
1743439034023,12:37:14.023,77,-1,1791.94139194139,0.854922854922855,32.9958098185016
1743439034043,12:37:14.043,77,-1,1751.64835164835,0.854922854922855,32.9958098185016
1743439034062,12:37:14.062,77,-1,1715.01831501831,0.855366855366855,32.9958098185016
1743439034082,12:37:14.082,65,-1,1691.57509157509,0.855366855366855,32.9958098185016
1743439034101,12:37:14.101,65,-1,1671.06227106227,0.855366855366855,32.9958098185016
1743439034121,12:37:14.121,65,-1,1646.15384615385,0.855366855366855,32.9958098185016
1743439034140,12:37:14.140,65,-1,1626.37362637363,0.855366855366855,32.9958098185016
1743439034160,12:37:14.160,65,-1,1603.663003663,0.855366855366855,32.9958098185016
1743439034179,12:37:14.179,65,-1,1578.02197802198,0.855366855366855,32.9958098185016
1743439034199,12:37:14.199,65,-1,1548.71794871795,0.855810855810856,32.9958098185016
1743439034218,12:37:14.218,65,-1,1527.47252747253,0.855366855366855,32.9958098185016
1743439034238,12:37:14.238,65,-1,1522.34432234432,0.855366855366855,32.9958098185016
1743439034257,12:37:14.257,65,-1,1515.01831501831,0.855366855366855,32.9958098185016
1743439034277,12:37:14.277,65,-1,1491.57509157509,0.855366855366855,32.9958098185016
1743439034296,12:37:14.296,65,-1,1460.80586080586,0.854922854922855,32.9958098185016
1743439034316,12:37:14.316,65,-1,1438.82783882784,0.854922854922855,32.9958098185016
1743439034335,12:37:14.335,65,-1,1418.31501831502,0.854922854922855,32.9958098185016
1743439034355,12:37:14.355,65,-1,1405.12820512821,0.854922854922855,32.9958098185016
1743439034374,12:37:14.374,65,-1,1384.61538461538,0.854922854922855,32.9958098185016
1743439034394,12:37:14.394,65,-1,1369.96336996337,0.855366855366855,32.9958098185016
1743439034413,12:37:14.413,65,-1,1358.97435897436,0.854922854922855,32.9958098185016
1743439034433,12:37:14.433,65,-1,1351.64835164835,0.854922854922855,32.9958098185016
1743439034452,12:37:14.452,65,-1,1342.12454212454,0.854478854478854,32.9958098185016
1743439034472,12:37:14.472,65,-1,1338.46153846154,0.854478854478854,32.9958098185016
1743439034491,12:37:14.491,65,-1,1325.27472527473,0.854478854478854,32.9958098185016
1743439034511,12:37:14.511,65,-1,1296.7032967033,0.854034854034854,32.9958098185016
1743439034530,12:37:14.530,65,-1,1282.05128205128,0.854478854478854,32.9958098185016
1743439034550,12:37:14.550,65,-1,1272.52747252747,0.854034854034854,32.9958098185016
1743439034569,12:37:14.569,65,-1,1250.54945054945,0.853590853590854,32.9958098185016
1743439034589,12:37:14.589,65,-1,1244.68864468864,0.853590853590854,32.9958098185016
1743439034608,12:37:14.608,65,-1,1248.35164835165,0.854034854034854,32.9958098185016
1743439034628,12:37:14.628,65,-1,1271.06227106227,0.854034854034854,32.9958098185016
1743439034647,12:37:14.647,65,-1,1320.14652014652,0.853590853590854,32.9958098185016
1743439034667,12:37:14.667,65,-1,1410.98901098901,0.854034854034854,32.9958098185016
1743439034686,12:37:14.686,65,-1,1529.67032967033,0.854034854034854,32.9958098185016
1743439034706,12:37:14.706,65,-1,1656.41025641026,0.854034854034854,32.9958098185016
1743439034725,12:37:14.725,65,-1,1765.56776556777,0.854034854034854,32.9958098185016
1743439034745,12:37:14.745,65,-1,1830.03663003663,0.854034854034854,32.9958098185016
1743439034764,12:37:14.764,65,-1,1861.53846153846,0.854034854034854,32.9958098185016
1743439034784,12:37:14.784,65,-1,1889.37728937729,0.854034854034854,32.9958098185016
1743439034803,12:37:14.803,65,-1,1898.9010989011,0.854034854034854,32.9958098185016
1743439034823,12:37:14.823,65,-1,1890.84249084249,0.853146853146853,32.9958098185016
1743439034842,12:37:14.842,65,-1,1869.59706959707,0.853146853146853,32.9958098185016
1743439034862,12:37:14.862,65,-1,1841.02564102564,0.853146853146853,32.9958098185016
1743439034881,12:37:14.881,65,-1,1801.4652014652,0.853590853590854,32.9958098185016
1743439034901,12:37:14.901,65,-1,1747.25274725275,0.853146853146853,32.9958098185016
1743439034920,12:37:14.920,65,-1,1700.3663003663,0.853146853146853,32.9958098185016
1743439034940,12:37:14.940,65,-1,1653.47985347985,0.853146853146853,32.9958098185016
1743439034959,12:37:14.959,65,-1,1613.18681318681,0.853146853146853,33.015825129929
1743439034979,12:37:14.979,65,-1,1574.35897435897,0.853146853146853,33.015825129929
1743439034998,12:37:14.998,65,-1,1547.98534798535,0.853146853146853,33.015825129929
1743439035018,12:37:15.018,65,-1,1531.13553113553,0.853146853146853,33.015825129929
1743439035037,12:37:15.037,68,-1,1523.07692307692,0.853146853146853,33.015825129929
1743439035057,12:37:15.057,68,-1,1506.95970695971,0.853146853146853,33.015825129929
1743439035076,12:37:15.076,68,-1,1490.84249084249,0.853146853146853,33.015825129929
1743439035096,12:37:15.096,68,-1,1493.04029304029,0.853146853146853,33.015825129929
1743439035115,12:37:15.115,68,-1,1499.6336996337,0.852702852702853,33.015825129929
1743439035135,12:37:15.135,68,-1,1491.57509157509,0.852702852702853,33.015825129929
1743439035154,12:37:15.154,68,-1,1470.32967032967,0.852258852258852,33.015825129929
1743439035174,12:37:15.174,68,-1,1444.68864468864,0.852258852258852,33.015825129929
1743439035193,12:37:15.193,68,-1,1424.17582417582,0.852258852258852,33.015825129929
1743439035213,12:37:15.213,68,-1,1416.11721611722,0.852258852258852,33.015825129929
1743439035232,12:37:15.232,68,-1,1403.663003663,0.852258852258852,33.015825129929
1743439035252,12:37:15.252,68,-1,1380.21978021978,0.852258852258852,33.015825129929
1743439035271,12:37:15.271,68,-1,1353.84615384615,0.852702852702853,33.015825129929
1743439035291,12:37:15.291,68,-1,1317.94871794872,0.852258852258852,33.015825129929
1743439035310,12:37:15.310,68,-1,1295.2380952381,0.851814851814852,33.015825129929
1743439035330,12:37:15.330,68,-1,1286.44688644689,0.851814851814852,33.015825129929
1743439035349,12:37:15.349,68,-1,1284.98168498168,0.851814851814852,33.015825129929
1743439035369,12:37:15.369,68,-1,1295.9706959707,0.851370851370851,33.015825129929
1743439035388,12:37:15.388,68,-1,1303.2967032967,0.851814851814852,33.015825129929
1743439035408,12:37:15.408,68,-1,1292.30769230769,0.851370851370851,33.015825129929
1743439035427,12:37:15.427,68,-1,1279.12087912088,0.851370851370851,33.015825129929
1743439035447,12:37:15.447,68,-1,1287.91208791209,0.851370851370851,33.015825129929
1743439035466,12:37:15.466,68,-1,1329.67032967033,0.851370851370851,33.015825129929
1743439035486,12:37:15.486,68,-1,1402.9304029304,0.851370851370851,33.015825129929
1743439035505,12:37:15.505,68,-1,1500.3663003663,0.851370851370851,33.015825129929
1743439035525,12:37:15.525,68,-1,1600.7326007326,0.851370851370851,33.015825129929
1743439035544,12:37:15.544,68,-1,1695.9706959707,0.851370851370851,33.015825129929
1743439035564,12:37:15.564,68,-1,1764.83516483516,0.851370851370851,33.015825129929
1743439035583,12:37:15.583,68,-1,1819.04761904762,0.851814851814852,33.015825129929
1743439035603,12:37:15.603,68,-1,1857.14285714286,0.851370851370851,33.015825129929
1743439035622,12:37:15.622,68,-1,1863.73626373626,0.851370851370851,33.015825129929
1743439035642,12:37:15.642,68,-1,1848.35164835165,0.851370851370851,33.015825129929
1743439035661,12:37:15.661,68,-1,1838.82783882784,0.851370851370851,33.015825129929
1743439035681,12:37:15.681,68,-1,1823.44322344322,0.851370851370851,33.015825129929
1743439035700,12:37:15.700,68,-1,1802.9304029304,0.850926850926851,33.015825129929
1743439035720,12:37:15.720,68,-1,1771.42857142857,0.850926850926851,33.015825129929
1743439035739,12:37:15.739,68,-1,1727.47252747253,0.851370851370851,33.015825129929
1743439035759,12:37:15.759,68,-1,1670.32967032967,0.851370851370851,33.015825129929
1743439035778,12:37:15.778,68,-1,1626.37362637363,0.850926850926851,33.015825129929
1743439035798,12:37:15.798,68,-1,1598.5347985348,0.850926850926851,33.015825129929
1743439035817,12:37:15.817,68,-1,1566.30036630037,0.851370851370851,33.015825129929
1743439035837,12:37:15.837,68,-1,1536.26373626374,0.852258852258852,33.015825129929
1743439035856,12:37:15.856,68,-1,1514.28571428571,0.853146853146853,33.015825129929
1743439035876,12:37:15.876,68,-1,1493.77289377289,0.853590853590854,33.015825129929
1743439035895,12:37:15.895,68,-1,1473.99267399267,0.853590853590854,33.015825129929
1743439035915,12:37:15.915,68,-1,1461.53846153846,0.85048285048285,33.015825129929
1743439035934,12:37:15.934,68,-1,1443.95604395604,0.85003885003885,33.015825129929
1743439035954,12:37:15.954,68,-1,1429.30402930403,0.84959484959485,33.0458479224471
1743439035973,12:37:15.973,68,-1,1413.91941391941,0.84959484959485,33.0458479224471
1743439035993,12:37:15.993,63,-1,1382.41758241758,0.849150849150849,33.0458479224471
1743439036012,12:37:16.012,63,-1,1361.17216117216,0.848706848706849,33.0458479224471
1743439036032,12:37:16.032,63,-1,1334.79853479853,0.848706848706849,33.0458479224471
1743439036051,12:37:16.051,63,-1,1312.82051282051,0.848706848706849,33.0458479224471
1743439036071,12:37:16.071,63,-1,1290.84249084249,0.847818847818848,33.0458479224471
1743439036090,12:37:16.090,63,-1,1287.17948717949,0.847818847818848,33.0458479224471
1743439036110,12:37:16.110,63,-1,1277.65567765568,0.847374847374847,33.0458479224471
1743439036129,12:37:16.129,63,-1,1252.74725274725,0.846930846930847,33.0458479224471
1743439036149,12:37:16.149,63,-1,1243.95604395604,0.846930846930847,33.0458479224471
1743439036168,12:37:16.168,63,-1,1247.61904761905,0.846486846486846,33.0458479224471
1743439036188,12:37:16.188,63,-1,1250.54945054945,0.846042846042846,33.0458479224471
1743439036207,12:37:16.207,63,-1,1243.95604395604,0.846042846042846,33.0458479224471
1743439036227,12:37:16.227,63,-1,1231.50183150183,0.846042846042846,33.0458479224471
1743439036246,12:37:16.246,63,-1,1221.24542124542,0.846042846042846,33.0458479224471
1743439036266,12:37:16.266,63,-1,1214.65201465201,0.845598845598846,33.0458479224471
1743439036285,12:37:16.285,63,-1,1213.18681318681,0.845598845598846,33.0458479224471
1743439036305,12:37:16.305,63,-1,1200.7326007326,0.846042846042846,33.0458479224471
1743439036324,12:37:16.324,63,-1,1207.32600732601,0.846042846042846,33.0458479224471
1743439036344,12:37:16.344,63,-1,1252.74725274725,0.846486846486846,33.0458479224471
1743439036363,12:37:16.363,63,-1,1321.61172161172,0.846486846486846,33.0458479224471
1743439036383,12:37:16.383,63,-1,1405.86080586081,0.846486846486846,33.0458479224471
1743439036402,12:37:16.402,63,-1,1496.7032967033,0.846486846486846,33.0458479224471
1743439036422,12:37:16.422,63,-1,1570.69597069597,0.846486846486846,33.0458479224471
1743439036441,12:37:16.441,63,-1,1630.76923076923,0.846486846486846,33.0458479224471
1743439036461,12:37:16.461,63,-1,1668.86446886447,0.846486846486846,33.0458479224471
1743439036480,12:37:16.480,63,-1,1694.50549450549,0.846486846486846,33.0458479224471
1743439036500,12:37:16.500,63,-1,1706.95970695971,0.846486846486846,33.0458479224471
1743439036519,12:37:16.519,63,-1,1701.8315018315,0.846486846486846,33.0458479224471
1743439036539,12:37:16.539,63,-1,1695.2380952381,0.846486846486846,33.0458479224471
1743439036558,12:37:16.558,63,-1,1677.65567765568,0.846486846486846,33.0458479224471
1743439036578,12:37:16.578,63,-1,1657.14285714286,0.846930846930847,33.0458479224471
1743439036597,12:37:16.597,63,-1,1646.15384615385,0.846930846930847,33.0458479224471
1743439036617,12:37:16.617,63,-1,1617.58241758242,0.846486846486846,33.0458479224471
1743439036636,12:37:16.636,63,-1,1561.17216117216,0.846486846486846,33.0458479224471
1743439036656,12:37:16.656,63,-1,1506.22710622711,0.846486846486846,33.0458479224471
1743439036675,12:37:16.675,63,-1,1460.80586080586,0.846930846930847,33.0458479224471
1743439036695,12:37:16.695,63,-1,1429.30402930403,0.846486846486846,33.0458479224471
1743439036714,12:37:16.714,63,-1,1410.25641025641,0.846486846486846,33.0458479224471
1743439036734,12:37:16.734,63,-1,1395.6043956044,0.846486846486846,33.0458479224471
1743439036753,12:37:16.753,63,-1,1400.7326007326,0.846042846042846,33.0458479224471
1743439036773,12:37:16.773,63,-1,1409.52380952381,0.846486846486846,33.0458479224471
1743439036792,12:37:16.792,63,-1,1399.2673992674,0.846042846042846,33.0458479224471
1743439036812,12:37:16.812,63,-1,1380.95238095238,0.846486846486846,33.0458479224471
1743439036831,12:37:16.831,63,-1,1360.43956043956,0.846042846042846,33.0458479224471
1743439036851,12:37:16.851,63,-1,1327.47252747253,0.846486846486846,33.0458479224471
1743439036870,12:37:16.870,63,-1,1303.2967032967,0.846486846486846,33.0458479224471
1743439036890,12:37:16.890,63,-1,1275.45787545788,0.846486846486846,33.0458479224471
1743439036909,12:37:16.909,63,-1,1268.13186813187,0.846930846930847,33.0458479224471
1743439036929,12:37:16.929,63,-1,1270.32967032967,0.846930846930847,33.0458479224471
1743439036948,12:37:16.948,63,-1,1271.79487179487,0.846486846486846,33.0458479224471
1743439036968,12:37:16.968,63,-1,1246.88644688645,0.846930846930847,33.0458479224471
1743439036987,12:37:16.987,63,-1,1221.97802197802,0.848262848262848,33.0458479224471
1743439037007,12:37:17.007,63,-1,1210.98901098901,0.848706848706849,33.0458479224471
1743439037026,12:37:17.026,63,-1,1200,0.848706848706849,33.0458479224471
1743439037046,12:37:17.046,63,-1,1203.663003663,0.848706848706849,33.0458479224471
1743439037065,12:37:17.065,63,-1,1210.25641025641,0.848262848262848,33.0458479224471
1743439037085,12:37:17.085,63,-1,1210.98901098901,0.847818847818848,33.0458479224471
1743439037104,12:37:17.104,63,-1,1195.6043956044,0.847374847374847,33.0458479224471
1743439037124,12:37:17.124,63,-1,1180.95238095238,0.846930846930847,33.0458479224471
1743439037143,12:37:17.143,63,-1,1163.36996336996,0.846930846930847,33.0458479224471
1743439037163,12:37:17.163,63,-1,1161.90476190476,0.847374847374847,33.0458479224471
1743439037182,12:37:17.182,63,-1,1168.49816849817,0.848262848262848,33.0458479224471
1743439037202,12:37:17.202,63,-1,1172.16117216117,0.848706848706849,33.0458479224471
1743439037221,12:37:17.221,63,-1,1172.16117216117,0.850926850926851,33.0458479224471
1743439037241,12:37:17.241,63,-1,1167.76556776557,0.851370851370851,33.0458479224471
1743439037260,12:37:17.260,63,-1,1178.75457875458,0.851814851814852,33.0458479224471
1743439037280,12:37:17.280,63,-1,1219.78021978022,0.852258852258852,33.0458479224471
1743439037299,12:37:17.299,63,-1,1282.78388278388,0.852258852258852,33.0458479224471
1743439037319,12:37:17.319,63,-1,1358.97435897436,0.851814851814852,33.0458479224471
1743439037338,12:37:17.338,63,-1,1431.50183150183,0.851814851814852,33.0458479224471
1743439037358,12:37:17.358,63,-1,1487.17948717949,0.851814851814852,33.0458479224471
1743439037377,12:37:17.377,63,-1,1515.01831501831,0.851814851814852,33.0458479224471
1743439037397,12:37:17.397,63,-1,1526.00732600733,0.851370851370851,33.0458479224471
1743439037416,12:37:17.416,63,-1,1539.19413919414,0.851370851370851,33.0458479224471
1743439037436,12:37:17.436,63,-1,1531.86813186813,0.851370851370851,33.0458479224471
1743439037455,12:37:17.455,63,-1,1521.61172161172,0.851370851370851,33.0458479224471
1743439037475,12:37:17.475,63,-1,1515.01831501831,0.850926850926851,33.0458479224471
1743439037494,12:37:17.494,63,-1,1512.08791208791,0.850926850926851,33.0458479224471
1743439037514,12:37:17.514,63,-1,1499.6336996337,0.850926850926851,33.0458479224471
1743439037533,12:37:17.533,63,-1,1456.41025641026,0.85048285048285,33.0458479224471
1743439037553,12:37:17.553,63,-1,1415.38461538462,0.85048285048285,33.0458479224471
1743439037572,12:37:17.572,63,-1,1390.47619047619,0.85003885003885,33.0458479224471
1743439037592,12:37:17.592,63,-1,1368.49816849817,0.85003885003885,33.0458479224471
1743439037611,12:37:17.611,63,-1,1343.58974358974,0.84959484959485,33.0458479224471
1743439037631,12:37:17.631,63,-1,1327.47252747253,0.85003885003885,33.0458479224471
1743439037650,12:37:17.650,63,-1,1315.75091575092,0.85003885003885,33.0458479224471
1743439037670,12:37:17.670,63,-1,1312.08791208791,0.85003885003885,33.0458479224471
1743439037689,12:37:17.689,63,-1,1306.22710622711,0.84959484959485,33.0458479224471
1743439037709,12:37:17.709,63,-1,1294.50549450549,0.848706848706849,33.0458479224471
1743439037728,12:37:17.728,63,-1,1294.50549450549,0.846486846486846,33.0458479224471
1743439037748,12:37:17.748,63,-1,1290.10989010989,0.844710844710845,33.0458479224471
1743439037767,12:37:17.767,63,-1,1273.99267399267,0.844710844710845,33.0458479224471
1743439037787,12:37:17.787,63,-1,1257.14285714286,0.844266844266844,33.0458479224471
1743439037806,12:37:17.806,63,-1,1225.64102564103,0.842490842490842,33.0458479224471
1743439037826,12:37:17.826,65,-1,1201.4652014652,0.83982683982684,33.0458479224471
1743439037845,12:37:17.845,65,-1,1189.74358974359,0.838938838938839,33.0458479224471
1743439037865,12:37:17.865,65,-1,1186.81318681319,0.838494838494838,33.0458479224471
1743439037884,12:37:17.884,65,-1,1200,0.837606837606838,33.0458479224471
1743439037904,12:37:17.904,65,-1,1225.64102564103,0.836274836274836,33.0458479224471
1743439037923,12:37:17.923,65,-1,1230.03663003663,0.833166833166833,33.0458479224471
1743439037943,12:37:17.943,65,-1,1217.58241758242,0.828726828726829,33.0658630010439
1743439037962,12:37:17.962,65,-1,1211.72161172161,0.826506826506826,33.0658630010439
1743439037982,12:37:17.982,65,-1,1194.87179487179,0.825174825174825,33.0658630010439
1743439038001,12:37:18.001,65,-1,1175.82417582418,0.823842823842824,33.0658630010439
1743439038021,12:37:18.021,65,-1,1177.28937728938,0.822954822954823,33.0658630010439
1743439038040,12:37:18.040,65,-1,1163.36996336996,0.821622821622822,33.0658630010439
1743439038060,12:37:18.060,65,-1,1148.71794871795,0.821622821622822,33.0658630010439
1743439038079,12:37:18.079,65,-1,1154.57875457875,0.821178821178821,33.0658630010439
1743439038099,12:37:18.099,65,-1,1165.56776556777,0.821178821178821,33.0658630010439
1743439038118,12:37:18.118,65,-1,1165.56776556777,0.822066822066822,33.0658630010439
1743439038138,12:37:18.138,65,-1,1164.10256410256,0.826506826506826,33.0658630010439
1743439038157,12:37:18.157,65,-1,1147.25274725275,0.829170829170829,33.0658630010439
1743439038177,12:37:18.177,65,-1,1142.85714285714,0.832278832278832,33.0658630010439
1743439038196,12:37:18.196,65,-1,1159.70695970696,0.834942834942835,33.0658630010439
1743439038216,12:37:18.216,65,-1,1197.0695970696,0.838494838494838,33.0658630010439
1743439038235,12:37:18.235,65,-1,1246.88644688645,0.832722832722833,33.0658630010439
1743439038255,12:37:18.255,65,-1,1301.0989010989,0.823842823842824,33.0658630010439
1743439038274,12:37:18.274,65,-1,1360.43956043956,0.82029082029082,33.0658630010439
1743439038294,12:37:18.294,65,-1,1399.2673992674,0.819402819402819,33.0658630010439
1743439038313,12:37:18.313,65,-1,1423.44322344322,0.807858807858808,33.0658630010439
1743439038333,12:37:18.333,65,-1,1432.96703296703,0.803418803418803,33.0658630010439
1743439038352,12:37:18.352,65,-1,1431.50183150183,0.786990786990787,33.0658630010439
1743439038372,12:37:18.372,65,-1,1431.50183150183,0.782994782994783,33.0658630010439
1743439038391,12:37:18.391,65,-1,1433.69963369963,0.776778776778777,33.0658630010439
1743439038411,12:37:18.411,65,-1,1443.22344322344,0.774558774558775,33.0658630010439
1743439038430,12:37:18.430,65,-1,1450.54945054945,0.772338772338772,33.0658630010439
1743439038450,12:37:18.450,65,-1,1455.67765567766,0.75990675990676,33.0658630010439
1743439038469,12:37:18.469,65,-1,1415.38461538462,0.744810744810745,33.0658630010439
1743439038489,12:37:18.489,65,-1,1375.82417582418,0.723942723942724,33.0658630010439
1743439038508,12:37:18.508,65,-1,1356.77655677656,0.684870684870685,33.0658630010439
1743439038528,12:37:18.528,65,-1,1339.19413919414,0.658674658674659,33.0658630010439
1743439038547,12:37:18.547,65,-1,1323.80952380952,0.632478632478632,33.0658630010439
1743439038567,12:37:18.567,65,-1,1312.82051282051,0.617382617382617,33.0658630010439
1743439038586,12:37:18.586,65,-1,1301.0989010989,0.605394605394605,33.0658630010439
1743439038606,12:37:18.606,65,-1,1289.37728937729,0.579198579198579,33.0658630010439
1743439038625,12:37:18.625,65,-1,1284.24908424908,0.579198579198579,33.0658630010439
1743439038645,12:37:18.645,65,-1,1285.71428571429,0.592962592962593,33.0658630010439
1743439038664,12:37:18.664,65,-1,1291.57509157509,0.605394605394605,33.0658630010439
1743439038684,12:37:18.684,65,-1,1283.51648351648,0.615606615606616,33.0658630010439
1743439038703,12:37:18.703,65,-1,1272.52747252747,0.628926628926629,33.0658630010439
1743439038723,12:37:18.723,65,-1,1262.27106227106,0.633366633366633,33.0658630010439
1743439038742,12:37:18.742,65,-1,1248.35164835165,0.636030636030636,33.0658630010439
1743439038762,12:37:18.762,65,-1,1231.50183150183,0.63958263958264,33.0658630010439
1743439038781,12:37:18.781,65,-1,1224.90842490842,0.644022644022644,33.0658630010439
1743439038801,12:37:18.801,65,-1,1219.78021978022,0.643578643578643,33.0658630010439
1743439038820,12:37:18.820,65,-1,1219.04761904762,0.641358641358641,33.0658630010439
1743439038840,12:37:18.840,65,-1,1224.90842490842,0.638250638250638,33.0658630010439
1743439038859,12:37:18.859,65,-1,1222.71062271062,0.631146631146631,33.0658630010439
1743439038879,12:37:18.879,65,-1,1216.11721611722,0.623598623598624,33.0658630010439
1743439038898,12:37:18.898,65,-1,1206.59340659341,0.612942612942613,33.0658630010439
1743439038918,12:37:18.918,65,-1,1210.25641025641,0.565434565434565,33.0658630010439
1743439038937,12:37:18.937,65,-1,1208.79120879121,0.512598512598513,33.0958854443161
1743439038957,12:37:18.957,65,-1,1210.25641025641,0.511710511710512,33.0958854443161
1743439038976,12:37:18.976,65,-1,1217.58241758242,0.521922521922522,33.0958854443161
1743439038996,12:37:18.996,65,-1,1224.90842490842,0.52991452991453,33.0958854443161
1743439039015,12:37:19.015,65,-1,1210.98901098901,0.548562548562548,33.0958854443161
1743439039035,12:37:19.035,65,-1,1202.9304029304,0.56010656010656,33.0958854443161
1743439039054,12:37:19.054,65,-1,1183.88278388278,0.562770562770563,33.0958854443161
1743439039074,12:37:19.074,65,-1,1180.95238095238,0.566766566766567,33.0958854443161
1743439039093,12:37:19.093,65,-1,1187.54578754579,0.564990564990565,33.0958854443161
1743439039113,12:37:19.113,65,-1,1192.67399267399,0.56010656010656,33.0958854443161
1743439039132,12:37:19.132,65,-1,1207.32600732601,0.555666555666556,33.0958854443161
1743439039152,12:37:19.152,65,-1,1246.88644688645,0.547674547674548,33.0958854443161
1743439039171,12:37:19.171,65,-1,1309.15750915751,0.527250527250527,33.0958854443161
1743439039191,12:37:19.191,65,-1,1354.57875457875,0.514818514818515,33.0958854443161
1743439039210,12:37:19.210,65,-1,1386.81318681319,0.514818514818515,33.0958854443161
1743439039230,12:37:19.230,65,-1,1409.52380952381,0.506382506382506,33.0958854443161
1743439039249,12:37:19.249,65,-1,1413.91941391941,0.493062493062493,33.0958854443161
1743439039269,12:37:19.269,65,-1,1417.58241758242,0.495282495282495,33.0958854443161
1743439039288,12:37:19.288,65,-1,1417.58241758242,0.504162504162504,33.0958854443161
1743439039308,12:37:19.308,65,-1,1417.58241758242,0.516594516594516,33.0958854443161
1743439039327,12:37:19.327,65,-1,1428.57142857143,0.527250527250527,33.0958854443161
1743439039347,12:37:19.347,65,-1,1428.57142857143,0.537018537018537,33.0958854443161
1743439039366,12:37:19.366,65,-1,1409.52380952381,0.545454545454545,33.0958854443161
1743439039386,12:37:19.386,65,-1,1396.336996337,0.554334554334554,33.0958854443161
1743439039405,12:37:19.405,65,-1,1381.68498168498,0.564546564546564,33.0958854443161
1743439039425,12:37:19.425,65,-1,1362.63736263736,0.571650571650572,33.0958854443161
1743439039444,12:37:19.444,65,-1,1337.72893772894,0.588966588966589,33.0958854443161
1743439039464,12:37:19.464,65,-1,1334.06593406593,0.596070596070596,33.0958854443161
1743439039483,12:37:19.483,65,-1,1334.79853479853,0.598734598734599,33.0958854443161
1743439039503,12:37:19.503,65,-1,1336.26373626374,0.600954600954601,33.0958854443161
1743439039522,12:37:19.522,65,-1,1319.41391941392,0.605394605394605,33.0958854443161
1743439039542,12:37:19.542,67,-1,1297.4358974359,0.607614607614608,33.0958854443161
1743439039561,12:37:19.561,67,-1,1286.44688644689,0.612942612942613,33.0958854443161
1743439039581,12:37:19.581,67,-1,1296.7032967033,0.61960261960262,33.0958854443161
1743439039600,12:37:19.600,67,-1,1301.8315018315,0.622710622710623,33.0958854443161
1743439039620,12:37:19.620,67,-1,1295.9706959707,0.624486624486625,33.0958854443161
1743439039639,12:37:19.639,67,-1,1290.10989010989,0.627594627594628,33.0958854443161
1743439039659,12:37:19.659,67,-1,1283.51648351648,0.630702630702631,33.0958854443161
1743439039678,12:37:19.678,67,-1,1286.44688644689,0.63958263958264,33.0958854443161
1743439039698,12:37:19.698,67,-1,1280.58608058608,0.651570651570651,33.0958854443161
1743439039717,12:37:19.717,67,-1,1263.00366300366,0.678654678654678,33.0958854443161
1743439039737,12:37:19.737,67,-1,1255.67765567766,0.688866688866689,33.0958854443161
1743439039756,12:37:19.756,67,-1,1249.08424908425,0.69064269064269,33.0958854443161
1743439039776,12:37:19.776,67,-1,1242.49084249084,0.691974691974692,33.0958854443161
1743439039795,12:37:19.795,67,-1,1236.63003663004,0.693306693306693,33.0958854443161
1743439039815,12:37:19.815,67,-1,1236.63003663004,0.694638694638694,33.0958854443161
1743439039834,12:37:19.834,67,-1,1238.82783882784,0.695526695526696,33.0958854443161
1743439039854,12:37:19.854,67,-1,1232.96703296703,0.694638694638694,33.0958854443161
1743439039873,12:37:19.873,67,-1,1240.29304029304,0.694194694194694,33.0958854443161
1743439039893,12:37:19.893,67,-1,1248.35164835165,0.696414696414696,33.0958854443161
1743439039912,12:37:19.912,67,-1,1242.49084249084,0.696858696858697,33.0958854443161
1743439039932,12:37:19.932,67,-1,1224.17582417582,0.697746697746698,33.1008891644888
1743439039951,12:37:19.951,67,-1,1213.18681318681,0.692862692862693,33.1008891644888
1743439039971,12:37:19.971,67,-1,1207.32600732601,0.686202686202686,33.1008891644888
1743439039990,12:37:19.990,67,-1,1210.98901098901,0.681318681318681,33.1008891644888
1743439040010,12:37:20.010,67,-1,1211.72161172161,0.676878676878677,33.1008891644888
1743439040029,12:37:20.029,67,-1,1227.83882783883,0.673770673770674,33.1008891644888
1743439040049,12:37:20.049,67,-1,1256.41025641026,0.671994671994672,33.1008891644888
1743439040068,12:37:20.068,67,-1,1311.35531135531,0.668886668886669,33.1008891644888
1743439040088,12:37:20.088,67,-1,1362.63736263736,0.663114663114663,33.1008891644888
1743439040107,12:37:20.107,67,-1,1393.40659340659,0.657342657342657,33.1008891644888
1743439040127,12:37:20.127,67,-1,1402.9304029304,0.653346653346653,33.1008891644888
1743439040146,12:37:20.146,67,-1,1412.45421245421,0.652014652014652,33.1008891644888
1743439040166,12:37:20.166,67,-1,1424.17582417582,0.652014652014652,33.1008891644888
1743439040185,12:37:20.185,67,-1,1424.90842490842,0.652014652014652,33.1008891644888
1743439040205,12:37:20.205,67,-1,1413.18681318681,0.651126651126651,33.1008891644888
1743439040224,12:37:20.224,67,-1,1402.1978021978,0.650682650682651,33.1008891644888
1743439040244,12:37:20.244,67,-1,1406.59340659341,0.651570651570651,33.1008891644888
1743439040263,12:37:20.263,67,-1,1416.84981684982,0.652014652014652,33.1008891644888
1743439040283,12:37:20.283,67,-1,1430.03663003663,0.652458652458652,33.1008891644888
1743439040302,12:37:20.302,67,-1,1419.78021978022,0.652014652014652,33.1008891644888
1743439040322,12:37:20.322,67,-1,1389.01098901099,0.652458652458652,33.1008891644888
1743439040341,12:37:20.341,67,-1,1366.30036630037,0.652014652014652,33.1008891644888
1743439040361,12:37:20.361,67,-1,1358.24175824176,0.652014652014652,33.1008891644888
1743439040380,12:37:20.380,67,-1,1370.69597069597,0.651126651126651,33.1008891644888
1743439040400,12:37:20.400,67,-1,1376.55677655678,0.651126651126651,33.1008891644888
1743439040419,12:37:20.419,67,-1,1360.43956043956,0.65023865023865,33.1008891644888
1743439040439,12:37:20.439,73,-1,1349.45054945055,0.643134643134643,33.1008891644888
1743439040458,12:37:20.458,73,-1,1335.53113553114,0.635586635586636,33.1008891644888
1743439040478,12:37:20.478,73,-1,1339.92673992674,0.634698634698635,33.1008891644888
1743439040497,12:37:20.497,73,-1,1348.71794871795,0.635142635142635,33.1008891644888
1743439040517,12:37:20.517,73,-1,1345.05494505494,0.635142635142635,33.1008891644888
1743439040536,12:37:20.536,73,-1,1336.99633699634,0.635142635142635,33.1008891644888
1743439040556,12:37:20.556,73,-1,1336.26373626374,0.635142635142635,33.1008891644888
1743439040575,12:37:20.575,73,-1,1325.27472527473,0.635142635142635,33.1008891644888
1743439040595,12:37:20.595,73,-1,1314.28571428571,0.635142635142635,33.1008891644888
1743439040614,12:37:20.614,73,-1,1305.49450549451,0.634698634698635,33.1008891644888
1743439040634,12:37:20.634,73,-1,1282.05128205128,0.634254634254634,33.1008891644888
1743439040653,12:37:20.653,73,-1,1260.07326007326,0.634254634254634,33.1008891644888
1743439040673,12:37:20.673,73,-1,1268.13186813187,0.633366633366633,33.1008891644888
1743439040692,12:37:20.692,73,-1,1275.45787545788,0.632034632034632,33.1008891644888
1743439040712,12:37:20.712,73,-1,1279.85347985348,0.631590631590632,33.1008891644888
1743439040731,12:37:20.731,73,-1,1276.19047619048,0.631146631146631,33.1008891644888
1743439040751,12:37:20.751,73,-1,1282.05128205128,0.631146631146631,33.1008891644888
1743439040770,12:37:20.770,73,-1,1282.78388278388,0.63025863025863,33.1008891644888
1743439040790,12:37:20.790,73,-1,1282.78388278388,0.63025863025863,33.1008891644888
1743439040809,12:37:20.809,73,-1,1285.71428571429,0.62981462981463,33.1008891644888
1743439040829,12:37:20.829,73,-1,1286.44688644689,0.629370629370629,33.1008891644888
1743439040848,12:37:20.848,73,-1,1273.99267399267,0.628926628926629,33.1008891644888
1743439040868,12:37:20.868,73,-1,1262.27106227106,0.628926628926629,33.1008891644888
1743439040887,12:37:20.887,73,-1,1278.38827838828,0.629370629370629,33.1008891644888
1743439040907,12:37:20.907,73,-1,1309.89010989011,0.629370629370629,33.1008891644888
1743439040926,12:37:20.926,73,-1,1344.32234432234,0.628926628926629,33.1259076780407
1743439040946,12:37:20.946,73,-1,1388.27838827839,0.628926628926629,33.1259076780407
1743439040965,12:37:20.965,73,-1,1440.29304029304,0.628482628482628,33.1259076780407
1743439040985,12:37:20.985,73,-1,1472.52747252747,0.628482628482628,33.1259076780407
1743439041004,12:37:21.004,73,-1,1487.91208791209,0.627594627594628,33.1259076780407
1743439041024,12:37:21.024,73,-1,1501.0989010989,0.627594627594628,33.1259076780407
1743439041043,12:37:21.043,73,-1,1519.41391941392,0.627594627594628,33.1259076780407
1743439041063,12:37:21.063,73,-1,1537.72893772894,0.627150627150627,33.1259076780407
1743439041082,12:37:21.082,73,-1,1552.38095238095,0.627150627150627,33.1259076780407
1743439041102,12:37:21.102,73,-1,1561.17216117216,0.626706626706627,33.1259076780407
1743439041121,12:37:21.121,73,-1,1562.63736263736,0.626706626706627,33.1259076780407
1743439041141,12:37:21.141,73,-1,1549.45054945055,0.626706626706627,33.1259076780407
1743439041160,12:37:21.160,73,-1,1523.07692307692,0.626706626706627,33.1259076780407
1743439041180,12:37:21.180,73,-1,1491.57509157509,0.626262626262626,33.1259076780407
1743439041199,12:37:21.199,73,-1,1461.53846153846,0.625818625818626,33.1259076780407
1743439041219,12:37:21.219,73,-1,1440.29304029304,0.625818625818626,33.1259076780407
1743439041238,12:37:21.238,73,-1,1435.89743589744,0.625374625374625,33.1259076780407
1743439041258,12:37:21.258,73,-1,1451.28205128205,0.624930624930625,33.1259076780407
1743439041277,12:37:21.277,73,-1,1458.60805860806,0.624930624930625,33.1259076780407
1743439041297,12:37:21.297,73,-1,1456.41025641026,0.624930624930625,33.1259076780407
1743439041316,12:37:21.316,73,-1,1432.96703296703,0.624930624930625,33.1259076780407
1743439041336,12:37:21.336,73,-1,1416.11721611722,0.624930624930625,33.1259076780407
1743439041355,12:37:21.355,67,-1,1405.86080586081,0.624930624930625,33.1259076780407
1743439041375,12:37:21.375,67,-1,1405.12820512821,0.624930624930625,33.1259076780407
1743439041394,12:37:21.394,67,-1,1405.12820512821,0.624930624930625,33.1259076780407
1743439041414,12:37:21.414,67,-1,1394.13919413919,0.624930624930625,33.1259076780407
1743439041433,12:37:21.433,67,-1,1380.95238095238,0.624930624930625,33.1259076780407
1743439041453,12:37:21.453,67,-1,1361.90476190476,0.624486624486625,33.1259076780407
1743439041472,12:37:21.472,67,-1,1354.57875457875,0.624486624486625,33.1259076780407
1743439041492,12:37:21.492,67,-1,1350.18315018315,0.624042624042624,33.1259076780407
1743439041511,12:37:21.511,67,-1,1340.65934065934,0.624042624042624,33.1259076780407
1743439041531,12:37:21.531,67,-1,1333.33333333333,0.624042624042624,33.1259076780407
1743439041550,12:37:21.550,67,-1,1329.67032967033,0.623598623598624,33.1259076780407
1743439041570,12:37:21.570,67,-1,1325.27472527473,0.623598623598624,33.1259076780407
1743439041589,12:37:21.589,67,-1,1315.75091575092,0.623598623598624,33.1259076780407
1743439041609,12:37:21.609,67,-1,1304.7619047619,0.623598623598624,33.1259076780407
1743439041628,12:37:21.628,67,-1,1304.0293040293,0.623598623598624,33.1259076780407
1743439041648,12:37:21.648,67,-1,1309.15750915751,0.623154623154623,33.1259076780407
1743439041667,12:37:21.667,67,-1,1309.15750915751,0.622266622266622,33.1259076780407
1743439041687,12:37:21.687,67,-1,1298.9010989011,0.621822621822622,33.1259076780407
1743439041706,12:37:21.706,67,-1,1284.24908424908,0.621822621822622,33.1259076780407
1743439041726,12:37:21.726,67,-1,1287.91208791209,0.621822621822622,33.1259076780407
1743439041745,12:37:21.745,67,-1,1317.21611721612,0.622266622266622,33.1259076780407
1743439041765,12:37:21.765,67,-1,1372.89377289377,0.622266622266622,33.1259076780407
1743439041784,12:37:21.784,67,-1,1436.63003663004,0.622266622266622,33.1259076780407
1743439041804,12:37:21.804,67,-1,1512.82051282051,0.622266622266622,33.1259076780407
1743439041823,12:37:21.823,67,-1,1581.68498168498,0.622266622266622,33.1259076780407
1743439041843,12:37:21.843,67,-1,1628.57142857143,0.621378621378621,33.1259076780407
1743439041862,12:37:21.862,67,-1,1641.02564102564,0.618270618270618,33.1259076780407
1743439041882,12:37:21.882,67,-1,1663.73626373626,0.616494616494616,33.1259076780407
1743439041901,12:37:21.901,67,-1,1693.77289377289,0.614274614274614,33.1259076780407
1743439041921,12:37:21.921,67,-1,1716.48351648352,0.611610611610612,33.1359150427161
1743439041940,12:37:21.940,67,-1,1734.79853479853,0.61027861027861,33.1359150427161
1743439041960,12:37:21.960,67,-1,1740.65934065934,0.60983460983461,33.1359150427161
1743439041979,12:37:21.979,67,-1,1739.19413919414,0.608946608946609,33.1359150427161
1743439041999,12:37:21.999,67,-1,1737.72893772894,0.608058608058608,33.1359150427161
1743439042018,12:37:22.018,67,-1,1727.47252747253,0.607614607614608,33.1359150427161
1743439042038,12:37:22.038,67,-1,1693.04029304029,0.607614607614608,33.1359150427161
1743439042057,12:37:22.057,67,-1,1649.81684981685,0.605394605394605,33.1359150427161
1743439042077,12:37:22.077,67,-1,1619.78021978022,0.602730602730603,33.1359150427161
1743439042096,12:37:22.096,67,-1,1607.32600732601,0.5996225996226,33.1359150427161
1743439042116,12:37:22.116,67,-1,1589.74358974359,0.598290598290598,33.1359150427161
1743439042135,12:37:22.135,67,-1,1569.96336996337,0.594294594294594,33.1359150427161
1743439042155,12:37:22.155,67,-1,1558.97435897436,0.593406593406593,33.1359150427161
1743439042174,12:37:22.174,67,-1,1545.78754578755,0.59029859029859,33.1359150427161
1743439042194,12:37:22.194,67,-1,1526.00732600733,0.585414585414585,33.1359150427161
1743439042213,12:37:22.213,67,-1,1520.87912087912,0.584082584082584,33.1359150427161
1743439042233,12:37:22.233,67,-1,1519.41391941392,0.583638583638584,33.1359150427161
1743439042252,12:37:22.252,67,-1,1507.69230769231,0.583194583194583,33.1359150427161
1743439042272,12:37:22.272,67,-1,1478.38827838828,0.583194583194583,33.1359150427161
1743439042291,12:37:22.291,65,-1,1442.49084249084,0.583194583194583,33.1359150427161
1743439042311,12:37:22.311,65,-1,1408.79120879121,0.583638583638584,33.1359150427161
1743439042330,12:37:22.330,65,-1,1377.28937728938,0.592962592962593,33.1359150427161
1743439042350,12:37:22.350,65,-1,1364.10256410256,0.597846597846598,33.1359150427161
1743439042369,12:37:22.369,65,-1,1360.43956043956,0.6000666000666,33.1359150427161
1743439042389,12:37:22.389,65,-1,1364.83516483516,0.6005106005106,33.1359150427161
1743439042408,12:37:22.408,65,-1,1358.24175824176,0.601842601842602,33.1359150427161
1743439042428,12:37:22.428,65,-1,1350.91575091575,0.603618603618604,33.1359150427161
1743439042447,12:37:22.447,65,-1,1343.58974358974,0.604506604506604,33.1359150427161
1743439042467,12:37:22.467,65,-1,1334.06593406593,0.604506604506604,33.1359150427161
1743439042486,12:37:22.486,65,-1,1330.40293040293,0.604506604506604,33.1359150427161
1743439042506,12:37:22.506,65,-1,1323.07692307692,0.604950604950605,33.1359150427161
1743439042525,12:37:22.525,65,-1,1318.68131868132,0.605838605838606,33.1359150427161
1743439042545,12:37:22.545,65,-1,1312.82051282051,0.606282606282606,33.1359150427161
1743439042564,12:37:22.564,65,-1,1305.49450549451,0.606726606726607,33.1359150427161
1743439042584,12:37:22.584,65,-1,1295.2380952381,0.606726606726607,33.1359150427161
1743439042603,12:37:22.603,65,-1,1285.71428571429,0.608946608946609,33.1359150427161
1743439042623,12:37:22.623,65,-1,1276.92307692308,0.609390609390609,33.1359150427161
1743439042642,12:37:22.642,65,-1,1306.22710622711,0.61027861027861,33.1359150427161
1743439042662,12:37:22.662,65,-1,1376.55677655678,0.61027861027861,33.1359150427161
1743439042681,12:37:22.681,65,-1,1471.79487179487,0.610722610722611,33.1359150427161
1743439042701,12:37:22.701,65,-1,1564.83516483516,0.611166611166611,33.1359150427161
1743439042720,12:37:22.720,65,-1,1652.01465201465,0.611166611166611,33.1359150427161
1743439042740,12:37:22.740,65,-1,1728.93772893773,0.611610611610612,33.1359150427161
1743439042759,12:37:22.759,65,-1,1789.01098901099,0.611166611166611,33.1359150427161
1743439042779,12:37:22.779,65,-1,1825.64102564103,0.611166611166611,33.1359150427161
1743439042798,12:37:22.798,65,-1,1852.74725274725,0.611610611610612,33.1359150427161
1743439042818,12:37:22.818,65,-1,1868.86446886447,0.614718614718615,33.1359150427161
1743439042837,12:37:22.837,65,-1,1869.59706959707,0.617826617826618,33.1359150427161
1743439042857,12:37:22.857,65,-1,1861.53846153846,0.62004662004662,33.1359150427161
1743439042876,12:37:22.876,65,-1,1848.35164835165,0.621378621378621,33.1359150427161
1743439042896,12:37:22.896,65,-1,1826.37362637363,0.621822621822622,33.1359150427161
1743439042915,12:37:22.915,65,-1,1800,0.622266622266622,33.1609333525412
1743439042935,12:37:22.935,65,-1,1747.25274725275,0.622710622710623,33.1609333525412
1743439042954,12:37:22.954,65,-1,1699.6336996337,0.622710622710623,33.1609333525412
1743439042974,12:37:22.974,65,-1,1668.86446886447,0.623154623154623,33.1609333525412
1743439042993,12:37:22.993,65,-1,1646.15384615385,0.623598623598624,33.1609333525412
1743439043013,12:37:23.013,65,-1,1619.04761904762,0.623598623598624,33.1609333525412
1743439043032,12:37:23.032,65,-1,1596.336996337,0.623598623598624,33.1609333525412
1743439043052,12:37:23.052,65,-1,1573.62637362637,0.623598623598624,33.1609333525412
1743439043071,12:37:23.071,65,-1,1554.57875457875,0.623154623154623,33.1609333525412
1743439043091,12:37:23.091,65,-1,1532.60073260073,0.623154623154623,33.1609333525412
1743439043110,12:37:23.110,65,-1,1517.21611721612,0.623154623154623,33.1609333525412
1743439043130,12:37:23.130,65,-1,1491.57509157509,0.623154623154623,33.1609333525412
1743439043149,12:37:23.149,65,-1,1477.65567765568,0.623154623154623,33.1609333525412
1743439043169,12:37:23.169,65,-1,1470.32967032967,0.623154623154623,33.1609333525412
1743439043188,12:37:23.188,65,-1,1446.88644688645,0.622710622710623,33.1609333525412
1743439043208,12:37:23.208,64,-1,1430.76923076923,0.622710622710623,33.1609333525412
1743439043227,12:37:23.227,64,-1,1408.05860805861,0.621822621822622,33.1609333525412
1743439043247,12:37:23.247,64,-1,1383.88278388278,0.621822621822622,33.1609333525412
1743439043266,12:37:23.266,64,-1,1370.69597069597,0.621378621378621,33.1609333525412
1743439043286,12:37:23.286,64,-1,1351.64835164835,0.620934620934621,33.1609333525412
1743439043305,12:37:23.305,64,-1,1336.99633699634,0.620934620934621,33.1609333525412
1743439043325,12:37:23.325,64,-1,1329.67032967033,0.620934620934621,33.1609333525412
1743439043344,12:37:23.344,64,-1,1327.47252747253,0.620934620934621,33.1609333525412
1743439043364,12:37:23.364,64,-1,1323.07692307692,0.620934620934621,33.1609333525412
1743439043383,12:37:23.383,64,-1,1312.82051282051,0.620490620490621,33.1609333525412
1743439043403,12:37:23.403,64,-1,1307.69230769231,0.62004662004662,33.1609333525412
1743439043422,12:37:23.422,64,-1,1298.1684981685,0.62004662004662,33.1609333525412
1743439043442,12:37:23.442,64,-1,1288.64468864469,0.61960261960262,33.1609333525412
1743439043461,12:37:23.461,64,-1,1290.10989010989,0.619158619158619,33.1609333525412
1743439043481,12:37:23.481,64,-1,1277.65567765568,0.618714618714619,33.1609333525412
1743439043500,12:37:23.500,64,-1,1265.20146520147,0.618714618714619,33.1609333525412
1743439043520,12:37:23.520,64,-1,1257.87545787546,0.618270618270618,33.1609333525412
1743439043539,12:37:23.539,64,-1,1280.58608058608,0.617826617826618,33.1609333525412
1743439043559,12:37:23.559,64,-1,1343.58974358974,0.617382617382617,33.1609333525412
1743439043578,12:37:23.578,64,-1,1435.16483516484,0.617382617382617,33.1609333525412
1743439043598,12:37:23.598,64,-1,1539.92673992674,0.616938616938617,33.1609333525412
1743439043617,12:37:23.617,64,-1,1645.42124542125,0.616938616938617,33.1609333525412
1743439043637,12:37:23.637,64,-1,1755.31135531136,0.616938616938617,33.1609333525412
1743439043656,12:37:23.656,64,-1,1827.10622710623,0.616494616494616,33.1609333525412
1743439043676,12:37:23.676,64,-1,1882.78388278388,0.616494616494616,33.1609333525412
1743439043695,12:37:23.695,64,-1,1906.95970695971,0.616050616050616,33.1609333525412
1743439043715,12:37:23.715,64,-1,1895.2380952381,0.616050616050616,33.1609333525412
1743439043734,12:37:23.734,64,-1,1888.64468864469,0.615606615606616,33.1609333525412
1743439043754,12:37:23.754,64,-1,1873.99267399267,0.615606615606616,33.1609333525412
1743439043773,12:37:23.773,64,-1,1845.42124542125,0.615162615162615,33.1609333525412
1743439043793,12:37:23.793,64,-1,1835.16483516484,0.615162615162615,33.1609333525412
1743439043812,12:37:23.812,64,-1,1816.11721611722,0.615606615606616,33.1609333525412
1743439043832,12:37:23.832,64,-1,1757.50915750916,0.615606615606616,33.1609333525412
1743439043851,12:37:23.851,64,-1,1702.5641025641,0.615162615162615,33.1609333525412
1743439043871,12:37:23.871,64,-1,1653.47985347985,0.614274614274614,33.1609333525412
1743439043890,12:37:23.890,64,-1,1612.45421245421,0.613830613830614,33.1609333525412
1743439043910,12:37:23.910,64,-1,1582.41758241758,0.613386613386613,33.1659369970439
1743439043929,12:37:23.929,64,-1,1564.10256410256,0.612942612942613,33.1659369970439
1743439043949,12:37:23.949,64,-1,1546.52014652015,0.612498612498612,33.1659369970439
1743439043968,12:37:23.968,64,-1,1531.13553113553,0.612942612942613,33.1659369970439
1743439043988,12:37:23.988,64,-1,1511.35531135531,0.612942612942613,33.1659369970439
1743439044007,12:37:24.007,64,-1,1493.04029304029,0.612942612942613,33.1659369970439
1743439044027,12:37:24.027,64,-1,1481.31868131868,0.613386613386613,33.1659369970439
1743439044046,12:37:24.046,64,-1,1460.80586080586,0.613830613830614,33.1659369970439
1743439044066,12:37:24.066,64,-1,1439.56043956044,0.613830613830614,33.1659369970439
1743439044085,12:37:24.085,65,-1,1405.86080586081,0.613830613830614,33.1659369970439
1743439044105,12:37:24.105,65,-1,1377.28937728938,0.613830613830614,33.1659369970439
1743439044124,12:37:24.124,65,-1,1350.91575091575,0.613830613830614,33.1659369970439
1743439044144,12:37:24.144,65,-1,1339.19413919414,0.613830613830614,33.1659369970439
1743439044163,12:37:24.163,65,-1,1334.06593406593,0.613386613386613,33.1659369970439
1743439044183,12:37:24.183,65,-1,1316.48351648352,0.613830613830614,33.1659369970439
1743439044202,12:37:24.202,65,-1,1310.62271062271,0.613386613386613,33.1659369970439
1743439044222,12:37:24.222,65,-1,1294.50549450549,0.613386613386613,33.1659369970439
1743439044241,12:37:24.241,65,-1,1294.50549450549,0.612942612942613,33.1659369970439
1743439044261,12:37:24.261,65,-1,1288.64468864469,0.612942612942613,33.1659369970439
1743439044280,12:37:24.280,65,-1,1279.12087912088,0.612942612942613,33.1659369970439
1743439044300,12:37:24.300,65,-1,1268.13186813187,0.612942612942613,33.1659369970439
1743439044319,12:37:24.319,65,-1,1257.87545787546,0.612942612942613,33.1659369970439
1743439044339,12:37:24.339,65,-1,1249.08424908425,0.612498612498612,33.1659369970439
1743439044358,12:37:24.358,65,-1,1237.36263736264,0.612498612498612,33.1659369970439
1743439044378,12:37:24.378,65,-1,1235.89743589744,0.612498612498612,33.1659369970439
1743439044397,12:37:24.397,65,-1,1226.37362637363,0.612498612498612,33.1659369970439
1743439044417,12:37:24.417,65,-1,1219.04761904762,0.612498612498612,33.1659369970439
1743439044436,12:37:24.436,65,-1,1255.67765567766,0.612054612054612,33.1659369970439
1743439044456,12:37:24.456,65,-1,1344.32234432234,0.612054612054612,33.1659369970439
1743439044475,12:37:24.475,65,-1,1447.61904761905,0.612054612054612,33.1659369970439
1743439044495,12:37:24.495,65,-1,1549.45054945055,0.612942612942613,33.1659369970439
1743439044514,12:37:24.514,65,-1,1643.22344322344,0.613386613386613,33.1659369970439
1743439044534,12:37:24.534,65,-1,1706.95970695971,0.613386613386613,33.1659369970439
1743439044553,12:37:24.553,65,-1,1751.64835164835,0.613830613830614,33.1659369970439
1743439044573,12:37:24.573,65,-1,1775.82417582418,0.613386613386613,33.1659369970439
1743439044592,12:37:24.592,65,-1,1789.01098901099,0.613386613386613,33.1659369970439
1743439044612,12:37:24.612,65,-1,1793.40659340659,0.613386613386613,33.1659369970439
1743439044631,12:37:24.631,65,-1,1787.54578754579,0.613386613386613,33.1659369970439
1743439044651,12:37:24.651,65,-1,1766.30036630037,0.613386613386613,33.1659369970439
1743439044670,12:37:24.670,65,-1,1742.85714285714,0.612942612942613,33.1659369970439
1743439044690,12:37:24.690,65,-1,1713.55311355311,0.612942612942613,33.1659369970439
1743439044709,12:37:24.709,65,-1,1676.19047619048,0.612942612942613,33.1659369970439
1743439044729,12:37:24.729,65,-1,1621.97802197802,0.612498612498612,33.1659369970439
1743439044748,12:37:24.748,65,-1,1570.69597069597,0.612942612942613,33.1659369970439
1743439044768,12:37:24.768,65,-1,1537.72893772894,0.612498612498612,33.1659369970439
1743439044787,12:37:24.787,65,-1,1515.01831501831,0.612498612498612,33.1659369970439
1743439044807,12:37:24.807,65,-1,1496.7032967033,0.614274614274614,33.1659369970439
1743439044826,12:37:24.826,65,-1,1485.71428571429,0.614274614274614,33.1659369970439
1743439044846,12:37:24.846,65,-1,1473.99267399267,0.614718614718615,33.1659369970439
1743439044865,12:37:24.865,65,-1,1446.15384615385,0.614718614718615,33.1659369970439
1743439044885,12:37:24.885,65,-1,1423.44322344322,0.614718614718615,33.1659369970439
1743439044904,12:37:24.904,65,-1,1386.81318681319,0.615162615162615,33.1809478956275
1743439044924,12:37:24.924,65,-1,1364.83516483516,0.615162615162615,33.1809478956275
1743439044943,12:37:24.943,65,-1,1354.57875457875,0.615162615162615,33.1809478956275
1743439044963,12:37:24.963,65,-1,1342.12454212454,0.615162615162615,33.1809478956275
1743439044982,12:37:24.982,65,-1,1320.14652014652,0.615162615162615,33.1809478956275
1743439045002,12:37:25.002,68,-1,1298.1684981685,0.615162615162615,33.1809478956275
1743439045021,12:37:25.021,68,-1,1287.17948717949,0.615162615162615,33.1809478956275
1743439045041,12:37:25.041,68,-1,1271.06227106227,0.615162615162615,33.1809478956275
1743439045060,12:37:25.060,68,-1,1254.94505494505,0.615162615162615,33.1809478956275
1743439045080,12:37:25.080,68,-1,1253.47985347985,0.615162615162615,33.1809478956275
1743439045099,12:37:25.099,68,-1,1261.53846153846,0.615162615162615,33.1809478956275
1743439045119,12:37:25.119,68,-1,1254.21245421245,0.615162615162615,33.1809478956275
1743439045138,12:37:25.138,68,-1,1245.42124542125,0.615162615162615,33.1809478956275
1743439045158,12:37:25.158,68,-1,1239.56043956044,0.615162615162615,33.1809478956275
1743439045177,12:37:25.177,68,-1,1234.43223443223,0.615162615162615,33.1809478956275
1743439045197,12:37:25.197,68,-1,1216.11721611722,0.615162615162615,33.1809478956275
1743439045216,12:37:25.216,68,-1,1205.86080586081,0.615162615162615,33.1809478956275
1743439045236,12:37:25.236,68,-1,1198.5347985348,0.615162615162615,33.1809478956275
1743439045255,12:37:25.255,68,-1,1208.79120879121,0.615162615162615,33.1809478956275
1743439045275,12:37:25.275,68,-1,1211.72161172161,0.615162615162615,33.1809478956275
1743439045294,12:37:25.294,68,-1,1200.7326007326,0.615162615162615,33.1809478956275
1743439045314,12:37:25.314,68,-1,1194.87179487179,0.615162615162615,33.1809478956275
1743439045333,12:37:25.333,68,-1,1231.50183150183,0.615606615606616,33.1809478956275
1743439045353,12:37:25.353,68,-1,1298.1684981685,0.615606615606616,33.1809478956275
1743439045372,12:37:25.372,68,-1,1378.02197802198,0.615162615162615,33.1809478956275
1743439045392,12:37:25.392,68,-1,1460.07326007326,0.615162615162615,33.1809478956275
1743439045411,12:37:25.411,68,-1,1532.60073260073,0.615162615162615,33.1809478956275
1743439045431,12:37:25.431,68,-1,1575.82417582418,0.615162615162615,33.1809478956275
1743439045451,12:37:25.450,68,-1,1611.72161172161,0.614718614718615,33.1809478956275
1743439045470,12:37:25.470,68,-1,1641.75824175824,0.614718614718615,33.1809478956275
1743439045490,12:37:25.489,68,-1,1659.34065934066,0.614718614718615,33.1809478956275
1743439045509,12:37:25.509,68,-1,1665.93406593407,0.614718614718615,33.1809478956275
1743439045529,12:37:25.528,68,-1,1664.46886446886,0.614718614718615,33.1809478956275
1743439045548,12:37:25.548,68,-1,1652.01465201465,0.614718614718615,33.1809478956275
1743439045568,12:37:25.568,68,-1,1632.23443223443,0.614718614718615,33.1809478956275
1743439045587,12:37:25.587,68,-1,1599.2673992674,0.614718614718615,33.1809478956275
1743439045607,12:37:25.607,68,-1,1558.97435897436,0.614718614718615,33.1809478956275
1743439045626,12:37:25.626,68,-1,1523.07692307692,0.623154623154623,33.1809478956275
1743439045646,12:37:25.646,68,-1,1487.17948717949,0.628482628482628,33.1809478956275
1743439045665,12:37:25.665,68,-1,1453.47985347985,0.628926628926629,33.1809478956275
1743439045685,12:37:25.685,68,-1,1439.56043956044,0.628926628926629,33.1809478956275
1743439045704,12:37:25.704,68,-1,1425.64102564103,0.628926628926629,33.1809478956275
1743439045724,12:37:25.724,68,-1,1397.0695970696,0.628926628926629,33.1809478956275
1743439045743,12:37:25.743,68,-1,1379.48717948718,0.628926628926629,33.1809478956275
1743439045763,12:37:25.763,68,-1,1365.56776556777,0.628926628926629,33.1809478956275
1743439045782,12:37:25.782,68,-1,1350.91575091575,0.628926628926629,33.1809478956275
1743439045802,12:37:25.802,68,-1,1335.53113553114,0.628926628926629,33.1809478956275
1743439045821,12:37:25.821,68,-1,1323.80952380952,0.628926628926629,33.1809478956275
1743439045841,12:37:25.841,68,-1,1314.28571428571,0.628482628482628,33.1809478956275
1743439045860,12:37:25.860,68,-1,1308.42490842491,0.628482628482628,33.1809478956275
1743439045880,12:37:25.880,65,-1,1305.49450549451,0.628482628482628,33.1809478956275
1743439045899,12:37:25.899,65,-1,1302.5641025641,0.628482628482628,33.2059659435181
1743439045919,12:37:25.919,65,-1,1301.0989010989,0.628038628038628,33.2059659435181
1743439045938,12:37:25.938,65,-1,1290.84249084249,0.628038628038628,33.2059659435181
1743439045958,12:37:25.958,65,-1,1271.06227106227,0.628038628038628,33.2059659435181
1743439045977,12:37:25.977,65,-1,1248.35164835165,0.628038628038628,33.2059659435181
1743439045997,12:37:25.997,65,-1,1239.56043956044,0.628038628038628,33.2059659435181
1743439046016,12:37:26.016,65,-1,1230.76923076923,0.628038628038628,33.2059659435181
1743439046036,12:37:26.036,65,-1,1226.37362637363,0.627594627594628,33.2059659435181
1743439046055,12:37:26.055,65,-1,1222.71062271062,0.627594627594628,33.2059659435181
1743439046075,12:37:26.075,65,-1,1209.52380952381,0.627594627594628,33.2059659435181
1743439046094,12:37:26.094,65,-1,1213.91941391941,0.627594627594628,33.2059659435181
1743439046114,12:37:26.114,65,-1,1206.59340659341,0.627594627594628,33.2059659435181
1743439046133,12:37:26.133,65,-1,1187.54578754579,0.627594627594628,33.2059659435181
1743439046153,12:37:26.153,65,-1,1184.61538461538,0.627150627150627,33.2059659435181
1743439046172,12:37:26.172,65,-1,1178.75457875458,0.627594627594628,33.2059659435181
1743439046192,12:37:26.192,65,-1,1182.41758241758,0.627150627150627,33.2059659435181
1743439046211,12:37:26.211,65,-1,1209.52380952381,0.627150627150627,33.2059659435181
1743439046231,12:37:26.231,65,-1,1268.86446886447,0.627150627150627,33.2059659435181
1743439046250,12:37:26.250,65,-1,1334.06593406593,0.627150627150627,33.2059659435181
1743439046270,12:37:26.270,65,-1,1406.59340659341,0.627150627150627,33.2059659435181
1743439046289,12:37:26.289,65,-1,1468.13186813187,0.628482628482628,33.2059659435181
1743439046309,12:37:26.309,65,-1,1520.87912087912,0.628926628926629,33.2059659435181
1743439046328,12:37:26.328,65,-1,1560.43956043956,0.628926628926629,33.2059659435181
1743439046348,12:37:26.348,65,-1,1561.90476190476,0.628926628926629,33.2059659435181
1743439046367,12:37:26.367,65,-1,1551.64835164835,0.62981462981463,33.2059659435181
1743439046387,12:37:26.387,65,-1,1538.46153846154,0.629370629370629,33.2059659435181
1743439046406,12:37:26.406,65,-1,1534.06593406593,0.628926628926629,33.2059659435181
1743439046426,12:37:26.426,65,-1,1535.53113553114,0.628926628926629,33.2059659435181
1743439046445,12:37:26.445,65,-1,1539.19413919414,0.628926628926629,33.2059659435181
1743439046465,12:37:26.465,65,-1,1523.07692307692,0.628482628482628,33.2059659435181
1743439046484,12:37:26.484,65,-1,1487.91208791209,0.628482628482628,33.2059659435181
1743439046504,12:37:26.504,65,-1,1460.07326007326,0.628482628482628,33.2059659435181
1743439046523,12:37:26.523,65,-1,1443.22344322344,0.628482628482628,33.2059659435181
1743439046543,12:37:26.543,65,-1,1426.37362637363,0.628482628482628,33.2059659435181
1743439046562,12:37:26.562,65,-1,1408.05860805861,0.628038628038628,33.2059659435181
1743439046582,12:37:26.582,65,-1,1389.01098901099,0.628926628926629,33.2059659435181
1743439046601,12:37:26.601,65,-1,1367.76556776557,0.628926628926629,33.2059659435181
1743439046621,12:37:26.621,65,-1,1347.98534798535,0.628926628926629,33.2059659435181
1743439046640,12:37:26.640,65,-1,1337.72893772894,0.628926628926629,33.2059659435181
1743439046660,12:37:26.660,65,-1,1344.32234432234,0.628482628482628,33.2059659435181
1743439046679,12:37:26.679,65,-1,1347.25274725275,0.628482628482628,33.2059659435181
1743439046699,12:37:26.699,65,-1,1343.58974358974,0.628482628482628,33.2059659435181
1743439046718,12:37:26.718,65,-1,1326.73992673993,0.628482628482628,33.2059659435181
1743439046738,12:37:26.738,68,-1,1300.3663003663,0.628482628482628,33.2059659435181
1743439046757,12:37:26.757,68,-1,1272.52747252747,0.628038628038628,33.2059659435181
1743439046777,12:37:26.777,68,-1,1259.34065934066,0.628038628038628,33.2059659435181
1743439046796,12:37:26.796,68,-1,1263.73626373626,0.628038628038628,33.2059659435181
1743439046816,12:37:26.816,68,-1,1264.46886446886,0.627594627594628,33.2059659435181
1743439046835,12:37:26.835,68,-1,1260.07326007326,0.627594627594628,33.2059659435181
1743439046855,12:37:26.855,68,-1,1250.54945054945,0.627150627150627,33.2059659435181
1743439046874,12:37:26.874,68,-1,1237.36263736264,0.627150627150627,33.2059659435181
1743439046894,12:37:26.894,68,-1,1230.03663003663,0.627150627150627,33.2259802770568
1743439046913,12:37:26.913,68,-1,1221.24542124542,0.626706626706627,33.2259802770568
1743439046933,12:37:26.933,68,-1,1215.38461538462,0.626706626706627,33.2259802770568
1743439046952,12:37:26.952,68,-1,1203.663003663,0.626262626262626,33.2259802770568
1743439046972,12:37:26.972,68,-1,1200.7326007326,0.626262626262626,33.2259802770568
1743439046991,12:37:26.991,68,-1,1201.4652014652,0.626262626262626,33.2259802770568
1743439047011,12:37:27.011,68,-1,1195.6043956044,0.626262626262626,33.2259802770568
1743439047030,12:37:27.030,68,-1,1179.48717948718,0.626262626262626,33.2259802770568
1743439047050,12:37:27.050,68,-1,1172.16117216117,0.626262626262626,33.2259802770568
1743439047069,12:37:27.069,68,-1,1182.41758241758,0.626262626262626,33.2259802770568
1743439047089,12:37:27.089,68,-1,1191.94139194139,0.625818625818626,33.2259802770568
1743439047108,12:37:27.108,68,-1,1217.58241758242,0.625818625818626,33.2259802770568
1743439047128,12:37:27.128,68,-1,1254.94505494505,0.625818625818626,33.2259802770568
1743439047147,12:37:27.147,68,-1,1314.28571428571,0.625374625374625,33.2259802770568
1743439047167,12:37:27.167,68,-1,1377.28937728938,0.624930624930625,33.2259802770568
1743439047186,12:37:27.186,68,-1,1438.09523809524,0.624486624486625,33.2259802770568
1743439047206,12:37:27.206,68,-1,1479.12087912088,0.624486624486625,33.2259802770568
1743439047225,12:37:27.225,68,-1,1489.37728937729,0.624042624042624,33.2259802770568
1743439047245,12:37:27.245,68,-1,1506.95970695971,0.623598623598624,33.2259802770568
1743439047264,12:37:27.264,68,-1,1512.82051282051,0.623598623598624,33.2259802770568
1743439047284,12:37:27.284,68,-1,1519.41391941392,0.623598623598624,33.2259802770568
1743439047303,12:37:27.303,68,-1,1518.68131868132,0.623598623598624,33.2259802770568
1743439047323,12:37:27.323,68,-1,1511.35531135531,0.623154623154623,33.2259802770568
1743439047342,12:37:27.342,68,-1,1484.24908424908,0.623154623154623,33.2259802770568
1743439047362,12:37:27.362,68,-1,1450.54945054945,0.622710622710623,33.2259802770568
1743439047381,12:37:27.381,68,-1,1419.78021978022,0.622710622710623,33.2259802770568
1743439047401,12:37:27.401,68,-1,1401.4652014652,0.622710622710623,33.2259802770568
1743439047420,12:37:27.420,68,-1,1403.663003663,0.622266622266622,33.2259802770568
1743439047440,12:37:27.440,68,-1,1413.18681318681,0.621822621822622,33.2259802770568
1743439047459,12:37:27.459,68,-1,1410.98901098901,0.621822621822622,33.2259802770568
1743439047479,12:37:27.479,68,-1,1396.336996337,0.621822621822622,33.2259802770568
1743439047498,12:37:27.498,68,-1,1367.76556776557,0.621378621378621,33.2259802770568
1743439047518,12:37:27.518,68,-1,1351.64835164835,0.621378621378621,33.2259802770568
1743439047537,12:37:27.537,68,-1,1334.06593406593,0.620934620934621,33.2259802770568
1743439047557,12:37:27.557,68,-1,1317.21611721612,0.620934620934621,33.2259802770568
1743439047576,12:37:27.576,68,-1,1310.62271062271,0.620934620934621,33.2259802770568
1743439047596,12:37:27.596,68,-1,1301.8315018315,0.620934620934621,33.2259802770568
1743439047615,12:37:27.615,68,-1,1293.04029304029,0.620934620934621,33.2259802770568
1743439047635,12:37:27.635,70,-1,1285.71428571429,0.620490620490621,33.2259802770568
1743439047654,12:37:27.654,70,-1,1283.51648351648,0.620490620490621,33.2259802770568
1743439047674,12:37:27.674,70,-1,1276.19047619048,0.62004662004662,33.2259802770568
1743439047693,12:37:27.693,70,-1,1281.31868131868,0.62004662004662,33.2259802770568
1743439047713,12:37:27.713,70,-1,1280.58608058608,0.62004662004662,33.2259802770568
1743439047732,12:37:27.732,70,-1,1265.93406593407,0.61960261960262,33.2259802770568
1743439047752,12:37:27.752,70,-1,1251.28205128205,0.618270618270618,33.2259802770568
1743439047771,12:37:27.771,70,-1,1246.88644688645,0.618270618270618,33.2259802770568
1743439047791,12:37:27.791,70,-1,1241.02564102564,0.617382617382617,33.2259802770568
1743439047810,12:37:27.810,70,-1,1239.56043956044,0.617826617826618,33.2259802770568
1743439047830,12:37:27.830,70,-1,1238.09523809524,0.617382617382617,33.2259802770568
1743439047849,12:37:27.849,70,-1,1246.88644688645,0.617382617382617,33.2259802770568
1743439047869,12:37:27.869,70,-1,1248.35164835165,0.616938616938617,33.2259802770568
1743439047888,12:37:27.888,70,-1,1228.57142857143,0.616938616938617,33.2459945174633
1743439047908,12:37:27.908,70,-1,1216.11721611722,0.616494616494616,33.2459945174633
1743439047927,12:37:27.927,70,-1,1219.78021978022,0.616050616050616,33.2459945174633
1743439047947,12:37:27.947,70,-1,1218.31501831502,0.616050616050616,33.2459945174633
1743439047966,12:37:27.966,70,-1,1212.45421245421,0.616494616494616,33.2459945174633
1743439047986,12:37:27.986,70,-1,1227.10622710623,0.616050616050616,33.2459945174633
1743439048005,12:37:28.005,70,-1,1279.12087912088,0.616050616050616,33.2459945174633
1743439048025,12:37:28.025,70,-1,1333.33333333333,0.616494616494616,33.2459945174633
1743439048044,12:37:28.044,70,-1,1384.61538461538,0.616050616050616,33.2459945174633
1743439048064,12:37:28.064,70,-1,1421.24542124542,0.616050616050616,33.2459945174633
1743439048083,12:37:28.083,70,-1,1444.68864468864,0.616050616050616,33.2459945174633
1743439048103,12:37:28.103,70,-1,1459.34065934066,0.615606615606616,33.2459945174633
1743439048122,12:37:28.122,70,-1,1472.52747252747,0.615162615162615,33.2459945174633
1743439048142,12:37:28.142,70,-1,1481.31868131868,0.615606615606616,33.2459945174633
1743439048161,12:37:28.161,70,-1,1480.58608058608,0.615162615162615,33.2459945174633
1743439048181,12:37:28.181,70,-1,1482.78388278388,0.615162615162615,33.2459945174633
1743439048200,12:37:28.200,70,-1,1488.64468864469,0.615162615162615,33.2459945174633
1743439048220,12:37:28.220,70,-1,1481.31868131868,0.615162615162615,33.2459945174633
1743439048239,12:37:28.239,70,-1,1457.14285714286,0.614718614718615,33.2459945174633
1743439048259,12:37:28.259,70,-1,1426.37362637363,0.614718614718615,33.2459945174633
1743439048278,12:37:28.278,70,-1,1393.40659340659,0.614718614718615,33.2459945174633
1743439048298,12:37:28.298,70,-1,1356.77655677656,0.614274614274614,33.2459945174633
1743439048317,12:37:28.317,70,-1,1319.41391941392,0.614274614274614,33.2459945174633
1743439048337,12:37:28.337,70,-1,1305.49450549451,0.614274614274614,33.2459945174633
1743439048356,12:37:28.356,70,-1,1313.55311355311,0.613830613830614,33.2459945174633
1743439048376,12:37:28.376,70,-1,1329.67032967033,0.613386613386613,33.2459945174633
1743439048395,12:37:28.395,70,-1,1337.72893772894,0.613386613386613,33.2459945174633
1743439048415,12:37:28.415,70,-1,1345.05494505494,0.613386613386613,33.2459945174633
1743439048434,12:37:28.434,70,-1,1351.64835164835,0.613386613386613,33.2459945174633
1743439048454,12:37:28.454,70,-1,1352.38095238095,0.612942612942613,33.2459945174633
1743439048473,12:37:28.473,70,-1,1344.32234432234,0.612942612942613,33.2459945174633
1743439048493,12:37:28.493,70,-1,1325.27472527473,0.612942612942613,33.2459945174633
1743439048512,12:37:28.512,70,-1,1299.6336996337,0.612942612942613,33.2459945174633
1743439048532,12:37:28.532,67,-1,1266.66666666667,0.612498612498612,33.2459945174633
1743439048551,12:37:28.551,67,-1,1254.94505494505,0.612498612498612,33.2459945174633
1743439048571,12:37:28.571,67,-1,1267.39926739927,0.612498612498612,33.2459945174633
1743439048590,12:37:28.590,67,-1,1260.80586080586,0.612498612498612,33.2459945174633
1743439048610,12:37:28.610,67,-1,1243.22344322344,0.612054612054612,33.2459945174633
1743439048629,12:37:28.629,67,-1,1249.81684981685,0.612054612054612,33.2459945174633
1743439048649,12:37:28.649,67,-1,1246.88644688645,0.611610611610612,33.2459945174633
1743439048668,12:37:28.668,67,-1,1245.42124542125,0.611610611610612,33.2459945174633
1743439048688,12:37:28.688,67,-1,1249.81684981685,0.612054612054612,33.2459945174633
1743439048707,12:37:28.707,67,-1,1247.61904761905,0.611610611610612,33.2459945174633
1743439048727,12:37:28.727,67,-1,1256.41025641026,0.611610611610612,33.2459945174633
1743439048746,12:37:28.746,67,-1,1252.01465201465,0.612054612054612,33.2459945174633
1743439048766,12:37:28.766,67,-1,1233.69963369963,0.612054612054612,33.2459945174633
1743439048785,12:37:28.785,67,-1,1224.17582417582,0.611610611610612,33.2459945174633
1743439048805,12:37:28.805,67,-1,1224.17582417582,0.611610611610612,33.2459945174633
1743439048824,12:37:28.824,67,-1,1227.83882783883,0.612054612054612,33.2459945174633
1743439048844,12:37:28.844,67,-1,1239.56043956044,0.612054612054612,33.2459945174633
1743439048863,12:37:28.863,67,-1,1293.04029304029,0.612054612054612,33.2459945174633
1743439048883,12:37:28.883,67,-1,1347.98534798535,0.612054612054612,33.2560016027419
1743439048902,12:37:28.902,67,-1,1385.34798534799,0.612498612498612,33.2560016027419
1743439048922,12:37:28.922,67,-1,1419.78021978022,0.612054612054612,33.2560016027419
1743439048941,12:37:28.941,67,-1,1449.08424908425,0.612054612054612,33.2560016027419
1743439048961,12:37:28.961,67,-1,1457.87545787546,0.612054612054612,33.2560016027419
1743439048980,12:37:28.980,67,-1,1464.46886446886,0.611610611610612,33.2560016027419
1743439049000,12:37:29.000,67,-1,1460.80586080586,0.612054612054612,33.2560016027419
