RawTimestamp,LocalTime,HR_Direct,HR_Buffered,PPG,GSR,Temperature
1743439469807,12:44:29.807,-1,-1,0,2.18241758241758,26.4608428180218
1743439469827,12:44:29.827,-1,-1,0,2.18241758241758,26.4608428180218
1743439469846,12:44:29.846,-1,-1,0,0.89297104222477,26.4608428180218
1743439469866,12:44:29.866,-1,-1,0,0.89297104222477,26.4608428180218
1743439469885,12:44:29.885,-1,-1,0,0.89297104222477,26.4608428180218
1743439469905,12:44:29.905,-1,-1,0,0.89297104222477,26.4608428180218
1743439469924,12:44:29.924,-1,-1,0,0.89297104222477,26.4608428180218
1743439469944,12:44:29.944,-1,-1,0,0.870441985424564,26.4608428180218
1743439469963,12:44:29.963,-1,-1,0,0.870441985424564,26.4608428180218
1743439469983,12:44:29.983,-1,-1,0,0.870441985424564,26.4608428180218
1743439470002,12:44:30.002,-1,-1,0,0.870441985424564,26.4608428180218
1743439470022,12:44:30.022,-1,-1,0,0.870441985424564,26.4608428180218
1743439470041,12:44:30.041,-1,-1,0,0.872527472527472,26.4608428180218
1743439470061,12:44:30.061,-1,-1,0,0.872527472527472,26.4608428180218
1743439470080,12:44:30.080,-1,-1,0,0.872527472527472,26.4608428180218
1743439470100,12:44:30.100,-1,-1,0,0.872527472527472,26.4608428180218
1743439470119,12:44:30.119,-1,-1,0,0.872527472527472,26.4608428180218
1743439470139,12:44:30.139,-1,-1,0,0.866466866466866,26.4608428180218
1743439470158,12:44:30.158,-1,-1,0,0.865134865134865,26.4608428180218
1743439470178,12:44:30.178,-1,-1,0,0.863802863802864,26.4608428180218
1743439470197,12:44:30.197,-1,-1,0,0.863358863358863,26.4608428180218
1743439470217,12:44:30.217,-1,-1,0,0.862470862470862,26.4608428180218
1743439470236,12:44:30.236,-1,-1,0,0.861582861582862,26.4608428180218
1743439470256,12:44:30.256,-1,-1,0,0.861138861138861,26.4608428180218
1743439470275,12:44:30.275,-1,-1,0,0.860694860694861,26.4608428180218
1743439470295,12:44:30.295,-1,-1,0,0.860694860694861,26.4608428180218
1743439470314,12:44:30.314,-1,-1,0,0.86025086025086,26.4608428180218
1743439470334,12:44:30.334,-1,-1,0,0.86025086025086,26.4608428180218
1743439470353,12:44:30.353,-1,-1,0,0.85980685980686,26.4608428180218
1743439470373,12:44:30.373,-1,-1,0,0.859362859362859,26.4608428180218
1743439470393,12:44:30.392,-1,-1,0,0.859362859362859,26.4608428180218
1743439470412,12:44:30.412,-1,-1,0,0.859362859362859,26.4608428180218
1743439470432,12:44:30.431,-1,-1,0,0.858474858474858,26.4608428180218
1743439470451,12:44:30.451,-1,-1,0,0.857142857142857,26.4608428180218
1743439470471,12:44:30.470,-1,-1,0,0.855810855810856,26.4608428180218
1743439470490,12:44:30.490,-1,-1,0,0.853590853590854,26.4608428180218
1743439470510,12:44:30.510,-1,-1,0,0.851370851370851,26.4608428180218
1743439470529,12:44:30.529,-1,-1,0,0.84959484959485,26.4608428180218
1743439470549,12:44:30.549,-1,-1,0,0.846486846486846,26.4608428180218
1743439470568,12:44:30.568,-1,-1,0,0.842490842490842,26.4608428180218
1743439470588,12:44:30.588,-1,-1,0,0.838050838050838,26.4608428180218
1743439470607,12:44:30.607,-1,-1,0,0.834054834054834,26.4608428180218
1743439470627,12:44:30.627,-1,-1,0,0.830502830502831,26.4608428180218
1743439470646,12:44:30.646,-1,-1,0,0.827838827838828,26.4608428180218
1743439470666,12:44:30.666,-1,-1,0,0.823398823398823,26.4608428180218
1743439470685,12:44:30.685,-1,-1,0,0.817182817182817,26.4608428180218
1743439470705,12:44:30.705,-1,-1,0,0.811854811854812,26.4608428180218
1743439470724,12:44:30.724,-1,-1,0,0.805638805638806,33.3910949751735
1743439470744,12:44:30.744,-1,-1,0,0.800754800754801,33.3910949751735
1743439470763,12:44:30.763,-1,-1,0,0.798090798090798,33.3910949751735
1743439470783,12:44:30.783,-1,-1,0,0.790542790542791,33.3910949751735
1743439470802,12:44:30.802,-1,-1,0,0.788322788322788,33.3910949751735
1743439470822,12:44:30.822,-1,-1,0,0.785658785658786,33.3910949751735
1743439470841,12:44:30.841,-1,-1,0,0.783438783438783,33.3910949751735
1743439470861,12:44:30.861,-1,-1,0,0.779442779442779,33.3910949751735
1743439470880,12:44:30.880,-1,-1,0,0.773226773226773,33.3910949751735
1743439470900,12:44:30.900,-1,-1,0,0.772338772338772,33.3910949751735
1743439470919,12:44:30.919,-1,-1,0,0.77011877011877,33.3910949751735
1743439470939,12:44:30.939,-1,-1,0,0.77011877011877,33.3910949751735
1743439470958,12:44:30.958,-1,-1,0,0.770562770562771,33.3910949751735
1743439470978,12:44:30.978,-1,-1,0,0.771006771006771,33.3910949751735
1743439470997,12:44:30.997,-1,-1,0,0.773670773670774,33.3910949751735
1743439471017,12:44:31.017,-1,-1,0,0.775446775446775,33.3910949751735
1743439471036,12:44:31.036,-1,-1,0,0.774558774558775,33.3910949751735
1743439471056,12:44:31.056,-1,-1,0,0.775446775446775,33.3910949751735
1743439471075,12:44:31.075,-1,-1,0,0.775446775446775,33.3910949751735
1743439471095,12:44:31.095,-1,-1,0,0.775446775446775,33.3910949751735
1743439471114,12:44:31.114,-1,-1,4.3956043956044,0.775002775002775,33.3910949751735
1743439471134,12:44:31.134,-1,-1,298.901098901099,0.775890775890776,33.3910949751735
1743439471153,12:44:31.153,-1,-1,642.490842490842,0.774114774114774,33.3910949751735
1743439471173,12:44:31.173,-1,-1,895.238095238095,0.771894771894772,33.3910949751735
1743439471192,12:44:31.192,-1,-1,1060.80586080586,0.770562770562771,33.3910949751735
1743439471212,12:44:31.212,-1,-1,1147.98534798535,0.769230769230769,33.3910949751735
1743439471231,12:44:31.231,-1,-1,1172.16117216117,0.768786768786769,33.3910949751735
1743439471251,12:44:31.251,-1,-1,1181.68498168498,0.769230769230769,33.3910949751735
1743439471270,12:44:31.270,-1,-1,1170.69597069597,0.766122766122766,33.3910949751735
1743439471290,12:44:31.290,-1,-1,1156.77655677656,0.762570762570763,33.3910949751735
1743439471309,12:44:31.309,-1,-1,1148.71794871795,0.75946275946276,33.3910949751735
1743439471329,12:44:31.329,-1,-1,1142.85714285714,0.757686757686758,33.3910949751735
1743439471348,12:44:31.348,-1,-1,1136.99633699634,0.754578754578755,33.3910949751735
1743439471368,12:44:31.368,-1,-1,1152.38095238095,0.75013875013875,33.3910949751735
1743439471387,12:44:31.387,-1,-1,1200,0.748362748362748,33.3910949751735
1743439471407,12:44:31.407,-1,-1,1266.66666666667,0.747474747474747,33.3910949751735
1743439471426,12:44:31.426,-1,-1,1334.79853479853,0.748362748362748,33.3910949751735
1743439471446,12:44:31.446,-1,-1,1399.2673992674,0.751470751470751,33.3910949751735
1743439471465,12:44:31.465,-1,-1,1449.81684981685,0.751914751914752,33.3910949751735
1743439471485,12:44:31.485,-1,-1,1483.51648351648,0.753690753690754,33.3910949751735
1743439471504,12:44:31.504,-1,-1,1505.49450549451,0.752358752358752,33.3910949751735
1743439471524,12:44:31.524,-1,-1,1524.54212454212,0.751914751914752,33.3910949751735
1743439471543,12:44:31.543,-1,-1,1527.47252747253,0.751026751026751,33.3910949751735
1743439471563,12:44:31.563,-1,-1,1521.61172161172,0.747918747918748,33.3910949751735
1743439471582,12:44:31.582,-1,-1,1515.75091575092,0.748362748362748,33.3910949751735
1743439471602,12:44:31.602,-1,-1,1495.2380952381,0.751914751914752,33.3910949751735
1743439471621,12:44:31.621,-1,-1,1468.13186813187,0.756798756798757,33.3910949751735
1743439471641,12:44:31.641,-1,-1,1438.82783882784,0.756798756798757,33.3910949751735
1743439471660,12:44:31.660,-1,-1,1431.50183150183,0.755466755466755,33.3910949751735
1743439471680,12:44:31.680,-1,-1,1430.03663003663,0.751914751914752,33.3910949751735
1743439471699,12:44:31.699,-1,-1,1421.97802197802,0.751914751914752,33.3910949751735
1743439471719,12:44:31.719,-1,-1,1410.25641025641,0.75013875013875,33.4011017228477
1743439471738,12:44:31.738,-1,-1,1391.94139194139,0.747474747474747,33.4011017228477
1743439471758,12:44:31.758,-1,-1,1378.75457875458,0.747918747918748,33.4011017228477
1743439471777,12:44:31.777,-1,-1,1368.49816849817,0.747030747030747,33.4011017228477
1743439471797,12:44:31.797,-1,-1,1354.57875457875,0.747474747474747,33.4011017228477
1743439471816,12:44:31.816,-1,-1,1331.13553113553,0.747030747030747,33.4011017228477
1743439471836,12:44:31.836,-1,-1,1312.08791208791,0.748362748362748,33.4011017228477
1743439471855,12:44:31.855,-1,-1,1288.64468864469,0.751026751026751,33.4011017228477
1743439471875,12:44:31.875,-1,-1,1285.71428571429,0.754578754578755,33.4011017228477
1743439471894,12:44:31.894,-1,-1,1297.4358974359,0.760794760794761,33.4011017228477
1743439471914,12:44:31.914,-1,-1,1295.2380952381,0.767010767010767,33.4011017228477
1743439471933,12:44:31.933,-1,-1,1279.12087912088,0.773226773226773,33.4011017228477
1743439471953,12:44:31.953,-1,-1,1257.14285714286,0.778110778110778,33.4011017228477
1743439471972,12:44:31.972,-1,-1,1240.29304029304,0.784326784326784,33.4011017228477
1743439471992,12:44:31.992,-1,-1,1232.96703296703,0.788322788322788,33.4011017228477
1743439472011,12:44:32.011,-1,-1,1228.57142857143,0.791874791874792,33.4011017228477
1743439472031,12:44:32.031,-1,-1,1222.71062271062,0.794538794538795,33.4011017228477
1743439472050,12:44:32.050,-1,-1,1212.45421245421,0.796314796314796,33.4011017228477
1743439472070,12:44:32.070,-1,-1,1210.98901098901,0.798534798534799,33.4011017228477
1743439472089,12:44:32.089,-1,-1,1202.9304029304,0.802974802974803,33.4011017228477
1743439472109,12:44:32.109,-1,-1,1194.13919413919,0.806526806526806,33.4011017228477
1743439472128,12:44:32.128,-1,-1,1194.13919413919,0.809634809634809,33.4011017228477
1743439472148,12:44:32.148,-1,-1,1194.13919413919,0.811410811410811,33.4011017228477
1743439472167,12:44:32.167,-1,-1,1178.02197802198,0.811854811854812,33.4011017228477
1743439472187,12:44:32.187,-1,-1,1158.24175824176,0.812298812298812,33.4011017228477
1743439472206,12:44:32.206,-1,-1,1153.84615384615,0.812298812298812,33.4011017228477
1743439472226,12:44:32.226,-1,-1,1180.95238095238,0.811854811854812,33.4011017228477
1743439472245,12:44:32.245,-1,-1,1219.78021978022,0.812298812298812,33.4011017228477
1743439472265,12:44:32.265,-1,-1,1263.73626373626,0.812742812742813,33.4011017228477
1743439472284,12:44:32.284,-1,-1,1328.20512820513,0.812742812742813,33.4011017228477
1743439472304,12:44:32.304,-1,-1,1404.3956043956,0.813186813186813,33.4011017228477
1743439472323,12:44:32.323,-1,-1,1475.45787545788,0.813630813630814,33.4011017228477
1743439472343,12:44:32.343,-1,-1,1516.48351648352,0.814074814074814,33.4011017228477
1743439472362,12:44:32.362,-1,-1,1537.72893772894,0.814962814962815,33.4011017228477
1743439472382,12:44:32.382,-1,-1,1552.38095238095,0.815406815406815,33.4011017228477
1743439472401,12:44:32.401,-1,-1,1551.64835164835,0.815406815406815,33.4011017228477
1743439472421,12:44:32.421,-1,-1,1538.46153846154,0.814962814962815,33.4011017228477
1743439472440,12:44:32.440,-1,-1,1523.07692307692,0.814962814962815,33.4011017228477
1743439472460,12:44:32.460,-1,-1,1493.77289377289,0.814518814518814,33.4011017228477
1743439472479,12:44:32.479,-1,-1,1464.46886446886,0.814518814518814,33.4011017228477
1743439472499,12:44:32.499,-1,-1,1438.82783882784,0.814074814074814,33.4011017228477
1743439472518,12:44:32.518,-1,-1,1435.89743589744,0.814074814074814,33.4011017228477
1743439472538,12:44:32.538,-1,-1,1442.49084249084,0.814074814074814,33.4011017228477
1743439472557,12:44:32.557,-1,-1,1432.23443223443,0.813630813630814,33.4011017228477
1743439472577,12:44:32.577,-1,-1,1413.91941391941,0.813630813630814,33.4011017228477
1743439472596,12:44:32.596,-1,-1,1397.8021978022,0.813630813630814,33.4011017228477
1743439472616,12:44:32.616,-1,-1,1391.20879120879,0.813186813186813,33.4011017228477
1743439472635,12:44:32.635,-1,-1,1388.27838827839,0.813186813186813,33.4011017228477
1743439472655,12:44:32.655,-1,-1,1364.83516483516,0.813630813630814,33.4011017228477
1743439472674,12:44:32.674,-1,-1,1334.79853479853,0.813630813630814,33.4011017228477
1743439472694,12:44:32.694,-1,-1,1309.89010989011,0.813630813630814,33.4011017228477
1743439472713,12:44:32.713,-1,-1,1293.77289377289,0.813186813186813,33.4211151483469
1743439472733,12:44:32.733,-1,-1,1287.91208791209,0.813186813186813,33.4211151483469
1743439472752,12:44:32.752,-1,-1,1286.44688644689,0.812742812742813,33.4211151483469
1743439472772,12:44:32.772,-1,-1,1271.06227106227,0.812742812742813,33.4211151483469
1743439472791,12:44:32.791,-1,-1,1267.39926739927,0.812298812298812,33.4211151483469
1743439472811,12:44:32.811,-1,-1,1266.66666666667,0.812298812298812,33.4211151483469
1743439472830,12:44:32.830,-1,-1,1261.53846153846,0.812298812298812,33.4211151483469
1743439472850,12:44:32.850,-1,-1,1257.87545787546,0.812298812298812,33.4211151483469
1743439472869,12:44:32.869,-1,-1,1254.94505494505,0.811854811854812,33.4211151483469
1743439472889,12:44:32.889,-1,-1,1248.35164835165,0.811410811410811,33.4211151483469
1743439472908,12:44:32.908,-1,-1,1227.83882783883,0.811410811410811,33.4211151483469
1743439472928,12:44:32.928,-1,-1,1219.78021978022,0.811410811410811,33.4211151483469
1743439472947,12:44:32.947,-1,-1,1217.58241758242,0.811410811410811,33.4211151483469
1743439472967,12:44:32.967,-1,-1,1208.05860805861,0.811854811854812,33.4211151483469
1743439472986,12:44:32.986,-1,-1,1187.54578754579,0.811854811854812,33.4211151483469
1743439473006,12:44:33.006,-1,-1,1163.36996336996,0.810966810966811,33.4211151483469
1743439473025,12:44:33.025,-1,-1,1157.50915750916,0.810966810966811,33.4211151483469
1743439473045,12:44:33.045,-1,-1,1156.77655677656,0.811410811410811,33.4211151483469
1743439473064,12:44:33.064,-1,-1,1164.10256410256,0.810966810966811,33.4211151483469
1743439473084,12:44:33.084,-1,-1,1179.48717948718,0.810966810966811,33.4211151483469
1743439473103,12:44:33.103,-1,-1,1207.32600732601,0.810522810522811,33.4211151483469
1743439473123,12:44:33.123,-1,-1,1252.01465201465,0.81007881007881,33.4211151483469
1743439473142,12:44:33.142,-1,-1,1309.15750915751,0.810522810522811,33.4211151483469
1743439473162,12:44:33.162,-1,-1,1376.55677655678,0.810522810522811,33.4211151483469
1743439473181,12:44:33.181,-1,-1,1435.16483516484,0.81007881007881,33.4211151483469
1743439473201,12:44:33.201,-1,-1,1479.85347985348,0.810522810522811,33.4211151483469
1743439473220,12:44:33.220,-1,-1,1502.5641025641,0.810522810522811,33.4211151483469
1743439473240,12:44:33.240,-1,-1,1513.55311355311,0.81007881007881,33.4211151483469
1743439473259,12:44:33.259,-1,-1,1505.49450549451,0.810522810522811,33.4211151483469
1743439473279,12:44:33.279,-1,-1,1503.2967032967,0.810522810522811,33.4211151483469
1743439473298,12:44:33.298,-1,-1,1494.50549450549,0.81007881007881,33.4211151483469
1743439473318,12:44:33.318,-1,-1,1482.78388278388,0.81007881007881,33.4211151483469
1743439473337,12:44:33.337,-1,-1,1476.19047619048,0.81007881007881,33.4211151483469
1743439473357,12:44:33.357,-1,-1,1465.93406593407,0.809634809634809,33.4211151483469
1743439473376,12:44:33.376,-1,-1,1435.89743589744,0.809634809634809,33.4211151483469
1743439473396,12:44:33.396,-1,-1,1418.31501831502,0.810966810966811,33.4211151483469
1743439473415,12:44:33.415,-1,-1,1409.52380952381,0.811410811410811,33.4211151483469
1743439473435,12:44:33.435,-1,-1,1395.6043956044,0.810966810966811,33.4211151483469
1743439473454,12:44:33.454,-1,-1,1391.20879120879,0.810966810966811,33.4211151483469
1743439473474,12:44:33.474,-1,-1,1394.87179487179,0.811410811410811,33.4211151483469
1743439473493,12:44:33.493,-1,-1,1391.20879120879,0.811410811410811,33.4211151483469
1743439473513,12:44:33.513,-1,-1,1368.49816849817,0.811410811410811,33.4211151483469
1743439473532,12:44:33.532,-1,-1,1349.45054945055,0.811854811854812,33.4211151483469
1743439473552,12:44:33.552,-1,-1,1342.12454212454,0.811410811410811,33.4211151483469
1743439473571,12:44:33.571,-1,-1,1334.79853479853,0.810966810966811,33.4211151483469
1743439473591,12:44:33.591,-1,-1,1318.68131868132,0.810966810966811,33.4211151483469
1743439473610,12:44:33.610,-1,-1,1303.2967032967,0.810966810966811,33.4211151483469
1743439473630,12:44:33.630,-1,-1,1296.7032967033,0.810522810522811,33.4211151483469
1743439473649,12:44:33.649,-1,-1,1283.51648351648,0.810522810522811,33.4211151483469
1743439473669,12:44:33.669,-1,-1,1274.72527472527,0.81007881007881,33.4211151483469
1743439473688,12:44:33.688,-1,-1,1257.14285714286,0.81007881007881,33.4211151483469
1743439473708,12:44:33.708,-1,-1,1235.16483516484,0.81007881007881,33.4311218261719
1743439473727,12:44:33.727,-1,-1,1237.36263736264,0.81007881007881,33.4311218261719
1743439473747,12:44:33.747,-1,-1,1243.22344322344,0.81007881007881,33.4311218261719
1743439473766,12:44:33.766,-1,-1,1241.75824175824,0.81007881007881,33.4311218261719
1743439473786,12:44:33.786,-1,-1,1242.49084249084,0.81007881007881,33.4311218261719
1743439473805,12:44:33.805,-1,-1,1234.43223443223,0.81007881007881,33.4311218261719
1743439473825,12:44:33.825,-1,-1,1216.84981684982,0.81007881007881,33.4311218261719
1743439473844,12:44:33.844,-1,-1,1207.32600732601,0.809634809634809,33.4311218261719
1743439473864,12:44:33.864,-1,-1,1208.79120879121,0.809634809634809,33.4311218261719
1743439473883,12:44:33.883,-1,-1,1200,0.809634809634809,33.4311218261719
1743439473903,12:44:33.903,-1,-1,1197.0695970696,0.809634809634809,33.4311218261719
1743439473922,12:44:33.922,-1,-1,1204.3956043956,0.809190809190809,33.4311218261719
1743439473942,12:44:33.942,-1,-1,1251.28205128205,0.809190809190809,33.4311218261719
1743439473961,12:44:33.961,-1,-1,1325.27472527473,0.809190809190809,33.4311218261719
1743439473981,12:44:33.981,-1,-1,1386.08058608059,0.808746808746809,33.4311218261719
1743439474000,12:44:34.000,-1,-1,1428.57142857143,0.808746808746809,33.4311218261719
1743439474020,12:44:34.020,-1,-1,1465.20146520146,0.808302808302808,33.4311218261719
1743439474039,12:44:34.039,-1,-1,1486.44688644689,0.808302808302808,33.4311218261719
1743439474059,12:44:34.059,-1,-1,1486.44688644689,0.808302808302808,33.4311218261719
1743439474078,12:44:34.078,-1,-1,1473.26007326007,0.808302808302808,33.4311218261719
1743439474098,12:44:34.098,-1,-1,1453.47985347985,0.808302808302808,33.4311218261719
1743439474117,12:44:34.117,-1,-1,1453.47985347985,0.808302808302808,33.4311218261719
1743439474137,12:44:34.137,-1,-1,1421.97802197802,0.807858807858808,33.4311218261719
1743439474156,12:44:34.156,-1,-1,1403.663003663,0.807858807858808,33.4311218261719
1743439474176,12:44:34.176,-1,-1,1400,0.807414807414807,33.4311218261719
1743439474195,12:44:34.195,-1,-1,1391.20879120879,0.807414807414807,33.4311218261719
1743439474215,12:44:34.215,-1,-1,1383.15018315018,0.806970806970807,33.4311218261719
1743439474234,12:44:34.234,-1,-1,1391.20879120879,0.807414807414807,33.4311218261719
1743439474254,12:44:34.254,-1,-1,1399.2673992674,0.806970806970807,33.4311218261719
1743439474273,12:44:34.273,-1,-1,1398.5347985348,0.806970806970807,33.4311218261719
1743439474293,12:44:34.293,-1,-1,1407.32600732601,0.806526806526806,33.4311218261719
1743439474312,12:44:34.312,-1,-1,1401.4652014652,0.806526806526806,33.4311218261719
1743439474332,12:44:34.332,-1,-1,1394.13919413919,0.806526806526806,33.4311218261719
1743439474351,12:44:34.351,-1,-1,1383.88278388278,0.806082806082806,33.4311218261719
1743439474371,12:44:34.371,-1,-1,1365.56776556777,0.806082806082806,33.4311218261719
1743439474390,12:44:34.390,-1,-1,1356.04395604396,0.805638805638806,33.4311218261719
1743439474410,12:44:34.410,-1,-1,1350.18315018315,0.805638805638806,33.4311218261719
1743439474429,12:44:34.429,-1,-1,1329.67032967033,0.805638805638806,33.4311218261719
1743439474449,12:44:34.449,-1,-1,1297.4358974359,0.805638805638806,33.4311218261719
1743439474468,12:44:34.468,-1,-1,1275.45787545788,0.805638805638806,33.4311218261719
1743439474488,12:44:34.488,-1,-1,1268.86446886447,0.805194805194805,33.4311218261719
1743439474507,12:44:34.507,-1,-1,1265.20146520147,0.804750804750805,33.4311218261719
1743439474527,12:44:34.527,-1,-1,1261.53846153846,0.804750804750805,33.4311218261719
1743439474546,12:44:34.546,-1,-1,1250.54945054945,0.804306804306804,33.4311218261719
1743439474566,12:44:34.566,-1,-1,1243.95604395604,0.804306804306804,33.4311218261719
1743439474585,12:44:34.585,-1,-1,1242.49084249084,0.804306804306804,33.4311218261719
1743439474605,12:44:34.605,-1,-1,1241.75824175824,0.804306804306804,33.4311218261719
1743439474624,12:44:34.624,-1,-1,1252.74725274725,0.803862803862804,33.4311218261719
1743439474644,12:44:34.644,-1,-1,1257.14285714286,0.803418803418803,33.4311218261719
1743439474663,12:44:34.663,-1,-1,1258.60805860806,0.803418803418803,33.4311218261719
1743439474683,12:44:34.683,-1,-1,1279.12087912088,0.803418803418803,33.4311218261719
1743439474702,12:44:34.702,-1,-1,1328.20512820513,0.803418803418803,33.4461317992536
1743439474722,12:44:34.722,-1,-1,1386.08058608059,0.803418803418803,33.4461317992536
1743439474741,12:44:34.741,-1,-1,1457.87545787546,0.802974802974803,33.4461317992536
1743439474761,12:44:34.761,-1,-1,1524.54212454212,0.802974802974803,33.4461317992536
1743439474780,12:44:34.780,-1,-1,1563.36996336996,0.802974802974803,33.4461317992536
1743439474800,12:44:34.800,-1,-1,1578.75457875458,0.802974802974803,33.4461317992536
1743439474819,12:44:34.819,-1,-1,1575.82417582418,0.802974802974803,33.4461317992536
1743439474839,12:44:34.839,-1,-1,1569.96336996337,0.802530802530803,33.4461317992536
1743439474858,12:44:34.858,-1,-1,1568.49816849817,0.802530802530803,33.4461317992536
1743439474878,12:44:34.878,-1,-1,1574.35897435897,0.802086802086802,33.4461317992536
1743439474897,12:44:34.897,-1,-1,1566.30036630037,0.802086802086802,33.4461317992536
1743439474917,12:44:34.917,-1,-1,1547.98534798535,0.802086802086802,33.4461317992536
1743439474936,12:44:34.936,-1,-1,1520.87912087912,0.801642801642802,33.4461317992536
1743439474956,12:44:34.956,-1,-1,1500.3663003663,0.801642801642802,33.4461317992536
1743439474975,12:44:34.975,-1,-1,1476.92307692308,0.801642801642802,33.4461317992536
1743439474995,12:44:34.995,-1,-1,1469.59706959707,0.801642801642802,33.4461317992536
1743439475014,12:44:35.014,-1,-1,1474.72527472527,0.801642801642802,33.4461317992536
1743439475034,12:44:35.034,-1,-1,1467.39926739927,0.801642801642802,33.4461317992536
1743439475053,12:44:35.053,-1,-1,1457.87545787546,0.801642801642802,33.4461317992536
1743439475073,12:44:35.073,-1,-1,1468.86446886447,0.801642801642802,33.4461317992536
1743439475092,12:44:35.092,-1,-1,1470.32967032967,0.801642801642802,33.4461317992536
1743439475112,12:44:35.112,-1,-1,1468.13186813187,0.801198801198801,33.4461317992536
1743439475131,12:44:35.131,-1,-1,1450.54945054945,0.801642801642802,33.4461317992536
1743439475151,12:44:35.151,-1,-1,1433.69963369963,0.801198801198801,33.4461317992536
1743439475170,12:44:35.170,-1,-1,1415.38461538462,0.801642801642802,33.4461317992536
1743439475190,12:44:35.190,-1,-1,1397.0695970696,0.801642801642802,33.4461317992536
1743439475209,12:44:35.209,-1,-1,1374.35897435897,0.801642801642802,33.4461317992536
1743439475229,12:44:35.229,-1,-1,1339.92673992674,0.801198801198801,33.4461317992536
1743439475248,12:44:35.248,-1,-1,1321.61172161172,0.801198801198801,33.4461317992536
1743439475268,12:44:35.268,-1,-1,1312.82051282051,0.800754800754801,33.4461317992536
1743439475287,12:44:35.287,-1,-1,1304.7619047619,0.800754800754801,33.4461317992536
1743439475307,12:44:35.307,-1,-1,1299.6336996337,0.800754800754801,33.4461317992536
1743439475326,12:44:35.326,-1,-1,1291.57509157509,0.800754800754801,33.4461317992536
1743439475346,12:44:35.346,-1,-1,1279.12087912088,0.800754800754801,33.4461317992536
1743439475365,12:44:35.365,-1,-1,1281.31868131868,0.8003108003108,33.4461317992536
1743439475385,12:44:35.385,-1,-1,1290.10989010989,0.8003108003108,33.4461317992536
1743439475404,12:44:35.404,-1,-1,1273.26007326007,0.8003108003108,33.4461317992536
1743439475424,12:44:35.424,-1,-1,1262.27106227106,0.7998667998668,33.4461317992536
1743439475443,12:44:35.443,-1,-1,1279.12087912088,0.7998667998668,33.4461317992536
1743439475463,12:44:35.463,-1,-1,1323.80952380952,0.7998667998668,33.4461317992536
1743439475482,12:44:35.482,-1,-1,1397.0695970696,0.799422799422799,33.4461317992536
1743439475502,12:44:35.502,-1,-1,1482.05128205128,0.799422799422799,33.4461317992536
1743439475521,12:44:35.521,-1,-1,1570.69597069597,0.799422799422799,33.4461317992536
1743439475541,12:44:35.541,-1,-1,1635.89743589744,0.799422799422799,33.4461317992536
1743439475560,12:44:35.560,-1,-1,1673.99267399267,0.799422799422799,33.4461317992536
1743439475580,12:44:35.580,-1,-1,1702.5641025641,0.7998667998668,33.4461317992536
1743439475599,12:44:35.599,-1,-1,1716.48351648352,0.7998667998668,33.4461317992536
1743439475619,12:44:35.619,-1,-1,1719.41391941392,0.799422799422799,33.4461317992536
1743439475638,12:44:35.638,-1,-1,1718.68131868132,0.799422799422799,33.4461317992536
1743439475658,12:44:35.658,-1,-1,1717.21611721612,0.799422799422799,33.4461317992536
1743439475677,12:44:35.677,-1,-1,1701.0989010989,0.799422799422799,33.4461317992536
1743439475697,12:44:35.697,-1,-1,1675.45787545788,0.798978798978799,33.4511351119727
1743439475716,12:44:35.716,-1,-1,1643.22344322344,0.798978798978799,33.4511351119727
1743439475736,12:44:35.736,-1,-1,1617.58241758242,0.798978798978799,33.4511351119727
1743439475755,12:44:35.755,-1,-1,1589.01098901099,0.798978798978799,33.4511351119727
1743439475775,12:44:35.775,-1,-1,1571.42857142857,0.798534798534799,33.4511351119727
1743439475794,12:44:35.794,-1,-1,1562.63736263736,0.798534798534799,33.4511351119727
1743439475814,12:44:35.814,-1,-1,1549.45054945055,0.798534798534799,33.4511351119727
1743439475833,12:44:35.833,-1,-1,1526.00732600733,0.798534798534799,33.4511351119727
1743439475853,12:44:35.853,-1,-1,1505.49450549451,0.798534798534799,33.4511351119727
1743439475872,12:44:35.872,-1,-1,1495.9706959707,0.798534798534799,33.4511351119727
1743439475892,12:44:35.892,-1,-1,1495.2380952381,0.798534798534799,33.4511351119727
1743439475911,12:44:35.911,-1,-1,1488.64468864469,0.798090798090798,33.4511351119727
1743439475931,12:44:35.931,-1,-1,1468.86446886447,0.798090798090798,33.4511351119727
1743439475950,12:44:35.950,-1,-1,1442.49084249084,0.798090798090798,33.4511351119727
1743439475970,12:44:35.970,-1,-1,1422.71062271062,0.798090798090798,33.4511351119727
1743439475989,12:44:35.989,-1,-1,1391.94139194139,0.798090798090798,33.4511351119727
1743439476009,12:44:36.009,-1,-1,1358.97435897436,0.798090798090798,33.4511351119727
1743439476028,12:44:36.028,-1,-1,1335.53113553114,0.798090798090798,33.4511351119727
1743439476048,12:44:36.048,-1,-1,1324.54212454212,0.797646797646798,33.4511351119727
1743439476067,12:44:36.067,-1,-1,1329.67032967033,0.797646797646798,33.4511351119727
1743439476087,12:44:36.087,-1,-1,1342.85714285714,0.797646797646798,33.4511351119727
1743439476106,12:44:36.106,-1,-1,1347.98534798535,0.797202797202797,33.4511351119727
1743439476126,12:44:36.126,-1,-1,1341.39194139194,0.797202797202797,33.4511351119727
1743439476145,12:44:36.145,-1,-1,1326.73992673993,0.797646797646798,33.4511351119727
1743439476165,12:44:36.165,-1,-1,1308.42490842491,0.797202797202797,33.4511351119727
1743439476184,12:44:36.184,-1,-1,1285.71428571429,0.797646797646798,33.4511351119727
1743439476204,12:44:36.204,-1,-1,1265.20146520147,0.797202797202797,33.4511351119727
1743439476223,12:44:36.223,-1,-1,1260.07326007326,0.797646797646798,33.4511351119727
1743439476243,12:44:36.243,-1,-1,1302.5641025641,0.797646797646798,33.4511351119727
1743439476262,12:44:36.262,-1,-1,1383.88278388278,0.797202797202797,33.4511351119727
1743439476282,12:44:36.282,-1,-1,1478.38827838828,0.797646797646798,33.4511351119727
1743439476301,12:44:36.301,-1,-1,1572.89377289377,0.797202797202797,33.4511351119727
1743439476321,12:44:36.321,-1,-1,1653.47985347985,0.797202797202797,33.4511351119727
1743439476340,12:44:36.340,-1,-1,1709.89010989011,0.797202797202797,33.4511351119727
1743439476360,12:44:36.360,-1,-1,1756.04395604396,0.797202797202797,33.4511351119727
1743439476379,12:44:36.379,-1,-1,1801.4652014652,0.797646797646798,33.4511351119727
1743439476399,12:44:36.399,-1,-1,1832.96703296703,0.797646797646798,33.4511351119727
1743439476418,12:44:36.418,-1,-1,1834.43223443223,0.797646797646798,33.4511351119727
1743439476438,12:44:36.438,-1,-1,1813.18681318681,0.797646797646798,33.4511351119727
1743439476457,12:44:36.457,-1,-1,1783.15018315018,0.797646797646798,33.4511351119727
1743439476477,12:44:36.477,-1,-1,1744.32234432234,0.797646797646798,33.4511351119727
1743439476496,12:44:36.496,-1,-1,1691.57509157509,0.797646797646798,33.4511351119727
1743439476516,12:44:36.516,-1,-1,1649.81684981685,0.797202797202797,33.4511351119727
1743439476535,12:44:36.535,-1,-1,1626.37362637363,0.797202797202797,33.4511351119727
1743439476555,12:44:36.555,-1,-1,1620.51282051282,0.797646797646798,33.4511351119727
1743439476574,12:44:36.574,-1,-1,1618.31501831502,0.797646797646798,33.4511351119727
1743439476594,12:44:36.594,-1,-1,1607.32600732601,0.797646797646798,33.4511351119727
1743439476613,12:44:36.613,-1,-1,1590.47619047619,0.797646797646798,33.4511351119727
1743439476633,12:44:36.633,-1,-1,1569.96336996337,0.797646797646798,33.4511351119727
1743439476652,12:44:36.652,-1,-1,1540.65934065934,0.797202797202797,33.4511351119727
1743439476672,12:44:36.672,-1,-1,1510.62271062271,0.797202797202797,33.4511351119727
1743439476691,12:44:36.691,-1,-1,1484.98168498168,0.797202797202797,33.4661450152053
1743439476711,12:44:36.711,-1,-1,1454.94505494505,0.796758796758797,33.4661450152053
1743439476730,12:44:36.730,-1,-1,1432.23443223443,0.796758796758797,33.4661450152053
1743439476750,12:44:36.750,-1,-1,1408.79120879121,0.797202797202797,33.4661450152053
1743439476769,12:44:36.769,-1,-1,1380.21978021978,0.797202797202797,33.4661450152053
1743439476789,12:44:36.789,-1,-1,1360.43956043956,0.797202797202797,33.4661450152053
1743439476808,12:44:36.808,-1,-1,1343.58974358974,0.796758796758797,33.4661450152053
1743439476828,12:44:36.828,-1,-1,1333.33333333333,0.797202797202797,33.4661450152053
1743439476847,12:44:36.847,-1,-1,1322.34432234432,0.797646797646798,33.4661450152053
1743439476867,12:44:36.867,-1,-1,1312.82051282051,0.797646797646798,33.4661450152053
1743439476886,12:44:36.886,-1,-1,1298.9010989011,0.797646797646798,33.4661450152053
1743439476906,12:44:36.906,-1,-1,1287.91208791209,0.797646797646798,33.4661450152053
1743439476925,12:44:36.925,-1,-1,1275.45787545788,0.797646797646798,33.4661450152053
1743439476945,12:44:36.945,-1,-1,1277.65567765568,0.797202797202797,33.4661450152053
1743439476964,12:44:36.964,-1,-1,1284.98168498168,0.797202797202797,33.4661450152053
1743439476984,12:44:36.984,-1,-1,1276.19047619048,0.796758796758797,33.4661450152053
1743439477003,12:44:37.003,-1,-1,1265.20146520147,0.796758796758797,33.4661450152053
1743439477023,12:44:37.023,-1,-1,1251.28205128205,0.796314796314796,33.4661450152053
1743439477042,12:44:37.042,-1,-1,1256.41025641026,0.796314796314796,33.4661450152053
1743439477062,12:44:37.062,-1,-1,1274.72527472527,0.795870795870796,33.4661450152053
1743439477081,12:44:37.081,-1,-1,1301.8315018315,0.795870795870796,33.4661450152053
1743439477101,12:44:37.101,-1,-1,1359.70695970696,0.795870795870796,33.4661450152053
1743439477120,12:44:37.120,-1,-1,1454.94505494505,0.795426795426795,33.4661450152053
1743439477140,12:44:37.140,-1,-1,1555.31135531136,0.795426795426795,33.4661450152053
1743439477159,12:44:37.159,-1,-1,1654.21245421245,0.795426795426795,33.4661450152053
1743439477179,12:44:37.179,-1,-1,1737.72893772894,0.795426795426795,33.4661450152053
1743439477198,12:44:37.198,-1,-1,1800,0.794982794982795,33.4661450152053
1743439477218,12:44:37.218,-1,-1,1843.95604395604,0.795426795426795,33.4661450152053
1743439477237,12:44:37.237,-1,-1,1857.87545787546,0.794982794982795,33.4661450152053
1743439477257,12:44:37.257,-1,-1,1846.15384615385,0.794982794982795,33.4661450152053
1743439477276,12:44:37.276,-1,-1,1820.51282051282,0.794538794538795,33.4661450152053
1743439477296,12:44:37.296,-1,-1,1793.40659340659,0.794538794538795,33.4661450152053
1743439477315,12:44:37.315,-1,-1,1763.36996336996,0.794538794538795,33.4661450152053
1743439477335,12:44:37.335,-1,-1,1723.80952380952,0.794538794538795,33.4661450152053
1743439477354,12:44:37.354,-1,-1,1676.19047619048,0.794538794538795,33.4661450152053
1743439477374,12:44:37.374,-1,-1,1645.42124542125,0.794538794538795,33.4661450152053
1743439477393,12:44:37.393,-1,-1,1625.64102564103,0.794094794094794,33.4661450152053
1743439477413,12:44:37.413,-1,-1,1597.0695970696,0.794094794094794,33.4661450152053
1743439477432,12:44:37.432,-1,-1,1568.49816849817,0.794094794094794,33.4661450152053
1743439477452,12:44:37.452,-1,-1,1554.57875457875,0.794094794094794,33.4661450152053
1743439477471,12:44:37.471,-1,-1,1545.78754578755,0.793650793650793,33.4661450152053
1743439477491,12:44:37.491,-1,-1,1535.53113553114,0.794094794094794,33.4661450152053
1743439477510,12:44:37.510,-1,-1,1510.62271062271,0.794094794094794,33.4661450152053
1743439477530,12:44:37.530,-1,-1,1482.05128205128,0.794094794094794,33.4661450152053
1743439477549,12:44:37.549,-1,-1,1449.08424908425,0.793650793650793,33.4661450152053
1743439477569,12:44:37.569,-1,-1,1413.18681318681,0.793650793650793,33.4661450152053
1743439477588,12:44:37.588,-1,-1,1386.08058608059,0.793650793650793,33.4661450152053
1743439477608,12:44:37.608,-1,-1,1356.04395604396,0.793206793206793,33.4661450152053
1743439477627,12:44:37.627,-1,-1,1338.46153846154,0.793206793206793,33.4661450152053
1743439477647,12:44:37.647,-1,-1,1333.33333333333,0.793206793206793,33.4661450152053
1743439477666,12:44:37.666,-1,-1,1323.80952380952,0.793206793206793,33.4661450152053
1743439477686,12:44:37.686,-1,-1,1306.22710622711,0.792762792762793,33.4811548660509
1743439477705,12:44:37.705,-1,-1,1276.92307692308,0.792762792762793,33.4811548660509
1743439477725,12:44:37.725,-1,-1,1273.26007326007,0.792318792318792,33.4811548660509
1743439477744,12:44:37.744,-1,-1,1272.52747252747,0.792762792762793,33.4811548660509
1743439477764,12:44:37.764,-1,-1,1267.39926739927,0.792318792318792,33.4811548660509
1743439477783,12:44:37.783,-1,-1,1267.39926739927,0.792318792318792,33.4811548660509
1743439477803,12:44:37.803,-1,-1,1266.66666666667,0.792318792318792,33.4811548660509
1743439477822,12:44:37.822,-1,-1,1260.07326007326,0.792318792318792,33.4811548660509
1743439477842,12:44:37.842,-1,-1,1254.94505494505,0.792318792318792,33.4811548660509
1743439477861,12:44:37.861,-1,-1,1252.74725274725,0.791874791874792,33.4811548660509
1743439477881,12:44:37.881,-1,-1,1253.47985347985,0.791874791874792,33.4811548660509
1743439477900,12:44:37.900,-1,-1,1266.66666666667,0.791874791874792,33.4811548660509
1743439477920,12:44:37.920,-1,-1,1307.69230769231,0.791874791874792,33.4811548660509
1743439477939,12:44:37.939,-1,-1,1386.08058608059,0.791430791430792,33.4811548660509
1743439477959,12:44:37.959,-1,-1,1483.51648351648,0.791430791430792,33.4811548660509
1743439477978,12:44:37.978,68,-1,1589.01098901099,0.791430791430792,33.4811548660509
1743439477998,12:44:37.998,68,-1,1676.92307692308,0.791430791430792,33.4811548660509
1743439478017,12:44:38.017,68,-1,1726.73992673993,0.791430791430792,33.4811548660509
1743439478037,12:44:38.037,68,-1,1756.77655677656,0.791430791430792,33.4811548660509
1743439478056,12:44:38.056,68,-1,1769.96336996337,0.791430791430792,33.4811548660509
1743439478076,12:44:38.076,68,-1,1771.42857142857,0.791430791430792,33.4811548660509
1743439478095,12:44:38.095,68,-1,1753.11355311355,0.791430791430792,33.4811548660509
1743439478115,12:44:38.115,68,-1,1735.53113553114,0.791430791430792,33.4811548660509
1743439478134,12:44:38.134,68,-1,1707.69230769231,0.790986790986791,33.4811548660509
1743439478154,12:44:38.154,68,-1,1665.20146520146,0.790986790986791,33.4811548660509
1743439478173,12:44:38.173,68,-1,1623.44322344322,0.790542790542791,33.4811548660509
1743439478193,12:44:38.193,68,-1,1587.54578754579,0.790542790542791,33.4811548660509
1743439478212,12:44:38.212,68,-1,1563.36996336996,0.790542790542791,33.4811548660509
1743439478232,12:44:38.232,68,-1,1557.50915750916,0.79009879009879,33.4811548660509
1743439478251,12:44:38.251,68,-1,1555.31135531136,0.79009879009879,33.4811548660509
1743439478271,12:44:38.271,68,-1,1545.78754578755,0.789654789654789,33.4811548660509
1743439478290,12:44:38.290,68,-1,1532.60073260073,0.789654789654789,33.4811548660509
1743439478310,12:44:38.310,68,-1,1516.48351648352,0.79009879009879,33.4811548660509
1743439478329,12:44:38.329,68,-1,1498.9010989011,0.79009879009879,33.4811548660509
1743439478349,12:44:38.349,68,-1,1477.65567765568,0.79009879009879,33.4811548660509
1743439478368,12:44:38.368,68,-1,1443.22344322344,0.789654789654789,33.4811548660509
1743439478388,12:44:38.388,68,-1,1406.59340659341,0.789654789654789,33.4811548660509
1743439478407,12:44:38.407,68,-1,1378.02197802198,0.789654789654789,33.4811548660509
1743439478427,12:44:38.427,68,-1,1354.57875457875,0.789654789654789,33.4811548660509
1743439478446,12:44:38.446,68,-1,1339.19413919414,0.789654789654789,33.4811548660509
1743439478466,12:44:38.466,68,-1,1320.87912087912,0.789210789210789,33.4811548660509
1743439478485,12:44:38.485,68,-1,1299.6336996337,0.789210789210789,33.4811548660509
1743439478505,12:44:38.505,68,-1,1283.51648351648,0.788766788766789,33.4811548660509
1743439478524,12:44:38.524,68,-1,1278.38827838828,0.788766788766789,33.4811548660509
1743439478544,12:44:38.544,68,-1,1273.99267399267,0.788766788766789,33.4811548660509
1743439478563,12:44:38.563,68,-1,1267.39926739927,0.788766788766789,33.4811548660509
1743439478583,12:44:38.583,68,-1,1263.73626373626,0.788766788766789,33.4811548660509
1743439478602,12:44:38.602,68,-1,1246.15384615385,0.788766788766789,33.4811548660509
1743439478622,12:44:38.622,68,-1,1239.56043956044,0.788766788766789,33.4811548660509
1743439478641,12:44:38.641,68,-1,1218.31501831502,0.788322788322788,33.4811548660509
1743439478661,12:44:38.661,68,-1,1214.65201465201,0.788322788322788,33.4811548660509
1743439478680,12:44:38.680,68,-1,1239.56043956044,0.789210789210789,33.4911614041775
1743439478700,12:44:38.700,68,-1,1294.50549450549,0.789210789210789,33.4911614041775
1743439478719,12:44:38.719,68,-1,1384.61538461538,0.789210789210789,33.4911614041775
1743439478739,12:44:38.739,68,-1,1495.9706959707,0.789210789210789,33.4911614041775
1743439478758,12:44:38.758,75,-1,1608.05860805861,0.789210789210789,33.4911614041775
1743439478778,12:44:38.778,75,-1,1690.10989010989,0.789654789654789,33.4911614041775
1743439478797,12:44:38.797,75,-1,1737.72893772894,0.789654789654789,33.4911614041775
1743439478817,12:44:38.817,75,-1,1757.50915750916,0.789210789210789,33.4911614041775
1743439478836,12:44:38.836,75,-1,1768.49816849817,0.789210789210789,33.4911614041775
1743439478856,12:44:38.856,75,-1,1761.17216117216,0.789654789654789,33.4911614041775
1743439478875,12:44:38.875,75,-1,1748.71794871795,0.789654789654789,33.4911614041775
1743439478895,12:44:38.895,75,-1,1729.67032967033,0.789654789654789,33.4911614041775
1743439478914,12:44:38.914,75,-1,1700.3663003663,0.789210789210789,33.4911614041775
1743439478934,12:44:38.934,75,-1,1650.54945054945,0.789210789210789,33.4911614041775
1743439478953,12:44:38.953,75,-1,1591.20879120879,0.789210789210789,33.4911614041775
1743439478973,12:44:38.973,75,-1,1539.19413919414,0.789210789210789,33.4911614041775
1743439478992,12:44:38.992,75,-1,1508.42490842491,0.789210789210789,33.4911614041775
1743439479012,12:44:39.012,75,-1,1503.2967032967,0.789210789210789,33.4911614041775
1743439479031,12:44:39.031,75,-1,1510.62271062271,0.789210789210789,33.4911614041775
1743439479051,12:44:39.051,75,-1,1511.35531135531,0.789210789210789,33.4911614041775
1743439479070,12:44:39.070,75,-1,1512.82051282051,0.789210789210789,33.4911614041775
1743439479090,12:44:39.090,75,-1,1506.95970695971,0.788766788766789,33.4911614041775
1743439479109,12:44:39.109,75,-1,1479.85347985348,0.788766788766789,33.4911614041775
1743439479129,12:44:39.129,75,-1,1435.89743589744,0.788766788766789,33.4911614041775
1743439479148,12:44:39.148,75,-1,1405.12820512821,0.788766788766789,33.4911614041775
1743439479168,12:44:39.168,75,-1,1378.75457875458,0.788766788766789,33.4911614041775
1743439479187,12:44:39.187,75,-1,1348.71794871795,0.789210789210789,33.4911614041775
1743439479207,12:44:39.207,75,-1,1315.75091575092,0.789210789210789,33.4911614041775
1743439479226,12:44:39.226,75,-1,1290.10989010989,0.789210789210789,33.4911614041775
1743439479246,12:44:39.246,75,-1,1295.2380952381,0.789210789210789,33.4911614041775
1743439479265,12:44:39.265,75,-1,1314.28571428571,0.788766788766789,33.4911614041775
1743439479285,12:44:39.285,75,-1,1294.50549450549,0.788766788766789,33.4911614041775
1743439479304,12:44:39.304,75,-1,1270.32967032967,0.788766788766789,33.4911614041775
1743439479324,12:44:39.324,75,-1,1250.54945054945,0.788766788766789,33.4911614041775
1743439479343,12:44:39.343,75,-1,1232.23443223443,0.788766788766789,33.4911614041775
1743439479363,12:44:39.363,75,-1,1222.71062271062,0.788322788322788,33.4911614041775
1743439479382,12:44:39.382,75,-1,1208.79120879121,0.788322788322788,33.4911614041775
1743439479402,12:44:39.402,75,-1,1197.8021978022,0.788322788322788,33.4911614041775
1743439479421,12:44:39.421,75,-1,1194.13919413919,0.788322788322788,33.4911614041775
1743439479441,12:44:39.441,75,-1,1202.9304029304,0.787878787878788,33.4911614041775
1743439479460,12:44:39.460,75,-1,1200.7326007326,0.788322788322788,33.4911614041775
1743439479480,12:44:39.480,75,-1,1202.1978021978,0.788322788322788,33.4911614041775
1743439479499,12:44:39.499,75,-1,1214.65201465201,0.788322788322788,33.4911614041775
1743439479519,12:44:39.519,75,-1,1238.82783882784,0.788322788322788,33.4911614041775
1743439479538,12:44:39.538,77,-1,1290.84249084249,0.788322788322788,33.4911614041775
1743439479558,12:44:39.558,77,-1,1376.55677655678,0.788766788766789,33.4911614041775
1743439479577,12:44:39.577,77,-1,1492.30769230769,0.788322788322788,33.4911614041775
1743439479597,12:44:39.597,77,-1,1601.4652014652,0.788766788766789,33.4911614041775
1743439479616,12:44:39.616,77,-1,1679.85347985348,0.788322788322788,33.4911614041775
1743439479636,12:44:39.636,77,-1,1726.00732600733,0.788322788322788,33.4911614041775
1743439479655,12:44:39.655,77,-1,1750.18315018315,0.788322788322788,33.4911614041775
1743439479675,12:44:39.675,77,-1,1772.89377289377,0.788322788322788,33.4961646645097
1743439479694,12:44:39.694,77,-1,1795.6043956044,0.787878787878788,33.4961646645097
1743439479714,12:44:39.714,77,-1,1792.67399267399,0.787878787878788,33.4961646645097
1743439479733,12:44:39.733,77,-1,1764.83516483516,0.787878787878788,33.4961646645097
1743439479753,12:44:39.753,77,-1,1723.80952380952,0.788322788322788,33.4961646645097
1743439479772,12:44:39.772,77,-1,1685.71428571429,0.788322788322788,33.4961646645097
1743439479792,12:44:39.792,77,-1,1641.75824175824,0.788322788322788,33.4961646645097
1743439479811,12:44:39.811,77,-1,1600,0.788322788322788,33.4961646645097
1743439479831,12:44:39.831,77,-1,1569.23076923077,0.788322788322788,33.4961646645097
1743439479850,12:44:39.850,77,-1,1536.99633699634,0.788322788322788,33.4961646645097
1743439479870,12:44:39.870,77,-1,1513.55311355311,0.788322788322788,33.4961646645097
1743439479889,12:44:39.889,77,-1,1506.95970695971,0.787878787878788,33.4961646645097
1743439479909,12:44:39.909,77,-1,1501.0989010989,0.787878787878788,33.4961646645097
1743439479928,12:44:39.928,77,-1,1487.91208791209,0.787878787878788,33.4961646645097
1743439479948,12:44:39.948,77,-1,1452.74725274725,0.787878787878788,33.4961646645097
1743439479967,12:44:39.967,77,-1,1413.18681318681,0.788322788322788,33.4961646645097
1743439479987,12:44:39.987,77,-1,1397.0695970696,0.787878787878788,33.4961646645097
1743439480006,12:44:40.006,77,-1,1369.96336996337,0.787434787434787,33.4961646645097
1743439480026,12:44:40.026,77,-1,1334.06593406593,0.787434787434787,33.4961646645097
1743439480045,12:44:40.045,77,-1,1306.22710622711,0.787434787434787,33.4961646645097
1743439480065,12:44:40.065,77,-1,1296.7032967033,0.787434787434787,33.4961646645097
1743439480084,12:44:40.084,77,-1,1286.44688644689,0.787434787434787,33.4961646645097
1743439480104,12:44:40.104,77,-1,1268.13186813187,0.786990786990787,33.4961646645097
1743439480123,12:44:40.123,77,-1,1252.01465201465,0.786990786990787,33.4961646645097
1743439480143,12:44:40.143,77,-1,1245.42124542125,0.786990786990787,33.4961646645097
1743439480162,12:44:40.162,77,-1,1233.69963369963,0.786990786990787,33.4961646645097
1743439480182,12:44:40.182,77,-1,1223.44322344322,0.786990786990787,33.4961646645097
1743439480201,12:44:40.201,77,-1,1221.24542124542,0.786546786546786,33.4961646645097
1743439480221,12:44:40.221,77,-1,1223.44322344322,0.786546786546786,33.4961646645097
1743439480240,12:44:40.240,77,-1,1231.50183150183,0.786102786102786,33.4961646645097
1743439480260,12:44:40.260,77,-1,1222.71062271062,0.786102786102786,33.4961646645097
1743439480279,12:44:40.279,77,-1,1219.78021978022,0.786102786102786,33.4961646645097
1743439480299,12:44:40.299,77,-1,1206.59340659341,0.785658785658786,33.4961646645097
1743439480318,12:44:40.318,77,-1,1196.336996337,0.785658785658786,33.4961646645097
1743439480338,12:44:40.338,77,-1,1203.663003663,0.785658785658786,33.4961646645097
1743439480357,12:44:40.357,77,-1,1211.72161172161,0.785658785658786,33.4961646645097
1743439480377,12:44:40.377,77,-1,1208.05860805861,0.785658785658786,33.4961646645097
1743439480396,12:44:40.396,77,-1,1225.64102564103,0.785214785214785,33.4961646645097
1743439480416,12:44:40.416,77,-1,1267.39926739927,0.785214785214785,33.4961646645097
1743439480435,12:44:40.435,77,-1,1352.38095238095,0.785214785214785,33.4961646645097
1743439480455,12:44:40.455,77,-1,1471.79487179487,0.785658785658786,33.4961646645097
1743439480474,12:44:40.474,77,-1,1576.55677655678,0.786102786102786,33.4961646645097
1743439480494,12:44:40.494,77,-1,1655.67765567766,0.786102786102786,33.4961646645097
1743439480513,12:44:40.513,77,-1,1712.08791208791,0.786102786102786,33.4961646645097
1743439480533,12:44:40.533,77,-1,1742.85714285714,0.786102786102786,33.4961646645097
1743439480552,12:44:40.552,77,-1,1744.32234432234,0.785658785658786,33.4961646645097
1743439480572,12:44:40.572,77,-1,1725.27472527473,0.785658785658786,33.4961646645097
1743439480591,12:44:40.591,77,-1,1704.7619047619,0.785658785658786,33.4961646645097
1743439480611,12:44:40.611,77,-1,1681.31868131868,0.785658785658786,33.4961646645097
1743439480630,12:44:40.630,77,-1,1659.34065934066,0.786102786102786,33.4961646645097
1743439480650,12:44:40.650,77,-1,1619.04761904762,0.786102786102786,33.4961646645097
1743439480669,12:44:40.669,77,-1,1562.63736263736,0.786102786102786,33.5011679190211
1743439480689,12:44:40.689,77,-1,1535.53113553114,0.786102786102786,33.5011679190211
1743439480708,12:44:40.708,77,-1,1522.34432234432,0.785658785658786,33.5011679190211
1743439480728,12:44:40.728,77,-1,1508.42490842491,0.786102786102786,33.5011679190211
1743439480747,12:44:40.747,77,-1,1482.78388278388,0.786102786102786,33.5011679190211
1743439480767,12:44:40.767,77,-1,1454.94505494505,0.786102786102786,33.5011679190211
1743439480786,12:44:40.786,77,-1,1436.63003663004,0.786102786102786,33.5011679190211
1743439480806,12:44:40.806,77,-1,1423.44322344322,0.786546786546786,33.5011679190211
1743439480825,12:44:40.825,77,-1,1400,0.786546786546786,33.5011679190211
1743439480845,12:44:40.845,77,-1,1375.09157509157,0.786546786546786,33.5011679190211
1743439480864,12:44:40.864,77,-1,1353.84615384615,0.786990786990787,33.5011679190211
1743439480884,12:44:40.884,77,-1,1327.47252747253,0.786990786990787,33.5011679190211
1743439480903,12:44:40.903,77,-1,1306.22710622711,0.786990786990787,33.5011679190211
1743439480923,12:44:40.923,77,-1,1288.64468864469,0.786990786990787,33.5011679190211
1743439480942,12:44:40.942,77,-1,1276.19047619048,0.786990786990787,33.5011679190211
1743439480962,12:44:40.962,77,-1,1252.74725274725,0.786990786990787,33.5011679190211
1743439480981,12:44:40.981,77,-1,1227.83882783883,0.786990786990787,33.5011679190211
1743439481001,12:44:41.001,77,-1,1219.04761904762,0.786990786990787,33.5011679190211
1743439481020,12:44:41.020,77,-1,1221.24542124542,0.786990786990787,33.5011679190211
1743439481040,12:44:41.040,77,-1,1218.31501831502,0.786990786990787,33.5011679190211
1743439481059,12:44:41.059,77,-1,1212.45421245421,0.786990786990787,33.5011679190211
1743439481079,12:44:41.079,77,-1,1210.98901098901,0.786990786990787,33.5011679190211
1743439481098,12:44:41.098,77,-1,1200,0.786990786990787,33.5011679190211
1743439481118,12:44:41.118,77,-1,1200.7326007326,0.786990786990787,33.5011679190211
1743439481137,12:44:41.137,77,-1,1201.4652014652,0.786990786990787,33.5011679190211
1743439481157,12:44:41.157,77,-1,1190.47619047619,0.786546786546786,33.5011679190211
1743439481176,12:44:41.176,77,-1,1189.74358974359,0.786990786990787,33.5011679190211
1743439481196,12:44:41.196,77,-1,1180.21978021978,0.786546786546786,33.5011679190211
1743439481215,12:44:41.215,77,-1,1182.41758241758,0.786546786546786,33.5011679190211
1743439481235,12:44:41.235,77,-1,1184.61538461538,0.786546786546786,33.5011679190211
1743439481254,12:44:41.254,77,-1,1173.62637362637,0.786546786546786,33.5011679190211
1743439481274,12:44:41.274,77,-1,1190.47619047619,0.786546786546786,33.5011679190211
1743439481293,12:44:41.293,77,-1,1231.50183150183,0.786102786102786,33.5011679190211
1743439481313,12:44:41.313,77,-1,1298.1684981685,0.786546786546786,33.5011679190211
1743439481332,12:44:41.332,77,-1,1385.34798534799,0.786990786990787,33.5011679190211
1743439481352,12:44:41.352,77,-1,1480.58608058608,0.787434787434787,33.5011679190211
1743439481371,12:44:41.371,77,-1,1566.30036630037,0.789654789654789,33.5011679190211
1743439481391,12:44:41.391,77,-1,1628.57142857143,0.79009879009879,33.5011679190211
1743439481410,12:44:41.410,77,-1,1659.34065934066,0.790542790542791,33.5011679190211
1743439481430,12:44:41.430,77,-1,1673.99267399267,0.79009879009879,33.5011679190211
1743439481449,12:44:41.449,77,-1,1678.38827838828,0.79009879009879,33.5011679190211
1743439481469,12:44:41.469,77,-1,1665.93406593407,0.79009879009879,33.5011679190211
1743439481488,12:44:41.488,77,-1,1628.57142857143,0.788766788766789,33.5011679190211
1743439481508,12:44:41.508,77,-1,1605.86080586081,0.787878787878788,33.5011679190211
1743439481527,12:44:41.527,77,-1,1594.13919413919,0.786990786990787,33.5011679190211
1743439481547,12:44:41.547,77,-1,1560.43956043956,0.786102786102786,33.5011679190211
1743439481566,12:44:41.566,77,-1,1513.55311355311,0.786102786102786,33.5011679190211
1743439481586,12:44:41.586,77,-1,1477.65567765568,0.786990786990787,33.5011679190211
1743439481605,12:44:41.605,77,-1,1467.39926739927,0.788766788766789,33.5011679190211
1743439481625,12:44:41.625,77,-1,1457.87545787546,0.79009879009879,33.5011679190211
1743439481644,12:44:41.644,77,-1,1455.67765567766,0.791430791430792,33.5011679190211
1743439481664,12:44:41.664,77,-1,1446.15384615385,0.792318792318792,33.5261841042666
1743439481683,12:44:41.683,77,-1,1436.63003663004,0.793650793650793,33.5261841042666
1743439481703,12:44:41.703,77,-1,1413.91941391941,0.795426795426795,33.5261841042666
1743439481722,12:44:41.722,77,-1,1395.6043956044,0.796314796314796,33.5261841042666
1743439481742,12:44:41.742,77,-1,1367.76556776557,0.797202797202797,33.5261841042666
1743439481761,12:44:41.761,77,-1,1341.39194139194,0.797202797202797,33.5261841042666
1743439481781,12:44:41.781,77,-1,1316.48351648352,0.797646797646798,33.5261841042666
1743439481800,12:44:41.800,77,-1,1295.9706959707,0.798978798978799,33.5261841042666
1743439481820,12:44:41.820,77,-1,1270.32967032967,0.8003108003108,33.5261841042666
1743439481839,12:44:41.839,77,-1,1249.81684981685,0.800754800754801,33.5261841042666
1743439481859,12:44:41.859,77,-1,1222.71062271062,0.802086802086802,33.5261841042666
1743439481878,12:44:41.878,77,-1,1202.1978021978,0.802086802086802,33.5261841042666
1743439481898,12:44:41.898,77,-1,1200,0.802530802530803,33.5261841042666
1743439481917,12:44:41.917,77,-1,1210.98901098901,0.803418803418803,33.5261841042666
1743439481937,12:44:41.937,77,-1,1226.37362637363,0.804306804306804,33.5261841042666
1743439481956,12:44:41.956,77,-1,1217.58241758242,0.804306804306804,33.5261841042666
1743439481976,12:44:41.976,77,-1,1216.84981684982,0.804306804306804,33.5261841042666
1743439481995,12:44:41.995,72,-1,1227.10622710623,0.803418803418803,33.5261841042666
1743439482015,12:44:42.015,72,-1,1207.32600732601,0.803862803862804,33.5261841042666
1743439482034,12:44:42.034,72,-1,1194.87179487179,0.804306804306804,33.5261841042666
1743439482054,12:44:42.054,72,-1,1195.6043956044,0.805194805194805,33.5261841042666
1743439482073,12:44:42.073,72,-1,1202.1978021978,0.805638805638806,33.5261841042666
1743439482093,12:44:42.093,72,-1,1199.2673992674,0.805638805638806,33.5261841042666
1743439482112,12:44:42.112,72,-1,1185.34798534799,0.804750804750805,33.5261841042666
1743439482132,12:44:42.132,72,-1,1186.08058608059,0.805194805194805,33.5261841042666
1743439482151,12:44:42.151,72,-1,1184.61538461538,0.806970806970807,33.5261841042666
1743439482171,12:44:42.171,72,-1,1196.336996337,0.809634809634809,33.5261841042666
1743439482190,12:44:42.190,72,-1,1232.23443223443,0.81007881007881,33.5261841042666
1743439482210,12:44:42.210,72,-1,1291.57509157509,0.809634809634809,33.5261841042666
1743439482229,12:44:42.229,72,-1,1373.62637362637,0.809190809190809,33.5261841042666
1743439482249,12:44:42.249,72,-1,1452.01465201465,0.81007881007881,33.5261841042666
1743439482268,12:44:42.268,72,-1,1512.82051282051,0.811854811854812,33.5261841042666
1743439482288,12:44:42.288,72,-1,1547.98534798535,0.814074814074814,33.5261841042666
1743439482307,12:44:42.307,72,-1,1567.03296703297,0.814074814074814,33.5261841042666
1743439482327,12:44:42.327,72,-1,1567.76556776557,0.813186813186813,33.5261841042666
1743439482346,12:44:42.346,72,-1,1553.11355311355,0.812298812298812,33.5261841042666
1743439482366,12:44:42.366,72,-1,1550.91575091575,0.813186813186813,33.5261841042666
1743439482385,12:44:42.385,72,-1,1556.77655677656,0.814962814962815,33.5261841042666
1743439482405,12:44:42.405,72,-1,1536.99633699634,0.816294816294816,33.5261841042666
1743439482424,12:44:42.424,72,-1,1515.01831501831,0.815850815850816,33.5261841042666
1743439482444,12:44:42.444,72,-1,1493.77289377289,0.814518814518814,33.5261841042666
1743439482463,12:44:42.463,72,-1,1471.79487179487,0.814074814074814,33.5261841042666
1743439482483,12:44:42.483,72,-1,1453.47985347985,0.814518814518814,33.5261841042666
1743439482502,12:44:42.502,72,-1,1439.56043956044,0.816294816294816,33.5261841042666
1743439482522,12:44:42.522,72,-1,1420.51282051282,0.817182817182817,33.5261841042666
1743439482541,12:44:42.541,72,-1,1402.9304029304,0.816738816738817,33.5261841042666
1743439482561,12:44:42.561,72,-1,1401.4652014652,0.814962814962815,33.5261841042666
