RawTimestamp,LocalTime,HR_Direct,HR_Buffered,PPG,GSR,Temperature
1743371318361,17:48:38.361,-1,-1,0,0.531690531690532,26.4608428180218
1743371318380,17:48:38.380,-1,-1,0,0.531690531690532,26.4608428180218
1743371318400,17:48:38.400,-1,-1,0,2.46022634082335,26.4608428180218
1743371318419,17:48:38.419,-1,-1,0,2.46022634082335,26.4608428180218
1743371318439,17:48:38.439,-1,-1,0,2.46022634082335,26.4608428180218
1743371318458,17:48:38.458,-1,-1,0,2.46022634082335,26.4608428180218
1743371318478,17:48:38.478,-1,-1,0,2.46022634082335,26.4608428180218
1743371318497,17:48:38.497,-1,-1,0,2.41222192441705,26.4608428180218
1743371318517,17:48:38.517,-1,-1,0,2.41222192441705,26.4608428180218
1743371318536,17:48:38.536,-1,-1,0,2.41222192441705,26.4608428180218
1743371318556,17:48:38.556,-1,-1,0,2.41222192441705,26.4608428180218
1743371318575,17:48:38.575,-1,-1,0,2.41222192441705,26.4608428180218
1743371318595,17:48:38.595,-1,-1,0,2.40952380952381,26.4608428180218
1743371318614,17:48:38.614,-1,-1,0,2.40952380952381,26.4608428180218
1743371318634,17:48:38.634,-1,-1,0,2.40952380952381,26.4608428180218
1743371318653,17:48:38.653,-1,-1,0,2.40952380952381,26.4608428180218
1743371318673,17:48:38.673,-1,-1,0,2.40952380952381,26.4608428180218
1743371318692,17:48:38.692,-1,-1,0,2.40952380952381,26.4608428180218
1743371318712,17:48:38.712,-1,-1,0,2.40952380952381,26.4608428180218
1743371318731,17:48:38.731,-1,-1,0,2.40952380952381,26.4608428180218
1743371318751,17:48:38.751,-1,-1,0,2.40952380952381,26.4608428180218
1743371318770,17:48:38.770,-1,-1,0,2.40952380952381,26.4608428180218
1743371318790,17:48:38.790,-1,-1,0,2.40952380952381,26.4608428180218
1743371318809,17:48:38.809,-1,-1,0,2.40805860805861,26.4608428180218
1743371318829,17:48:38.829,-1,-1,0,2.40805860805861,26.4608428180218
1743371318848,17:48:38.848,-1,-1,0,2.40805860805861,26.4608428180218
1743371318868,17:48:38.868,-1,-1,0,2.40805860805861,26.4608428180218
1743371318887,17:48:38.887,-1,-1,0,2.40805860805861,26.4608428180218
1743371318907,17:48:38.907,-1,-1,0,2.40805860805861,26.4608428180218
1743371318926,17:48:38.926,-1,-1,0,2.40659340659341,26.4608428180218
1743371318946,17:48:38.946,-1,-1,0,2.40805860805861,26.4608428180218
1743371318965,17:48:38.965,-1,-1,0,2.40659340659341,26.4608428180218
1743371318985,17:48:38.985,-1,-1,0,2.40659340659341,26.4608428180218
1743371319004,17:48:39.004,-1,-1,0,2.40659340659341,26.4608428180218
1743371319024,17:48:39.024,-1,-1,0,2.40512820512821,26.4608428180218
1743371319043,17:48:39.043,-1,-1,0,2.40659340659341,26.4608428180218
1743371319063,17:48:39.063,-1,-1,0,2.40512820512821,26.4608428180218
1743371319082,17:48:39.082,-1,-1,0,2.40512820512821,26.4608428180218
1743371319102,17:48:39.102,-1,-1,0,2.40512820512821,26.4608428180218
1743371319121,17:48:39.121,-1,-1,0,2.40512820512821,26.4608428180218
1743371319141,17:48:39.141,-1,-1,0,2.403663003663,26.4608428180218
1743371319160,17:48:39.160,-1,-1,0,2.403663003663,26.4608428180218
1743371319180,17:48:39.180,-1,-1,0,2.403663003663,26.4608428180218
1743371319199,17:48:39.199,-1,-1,0,2.403663003663,26.4608428180218
1743371319219,17:48:39.219,-1,-1,0,2.403663003663,26.4608428180218
1743371319238,17:48:39.238,-1,-1,0,2.403663003663,26.4608428180218
1743371319258,17:48:39.258,-1,-1,0,2.403663003663,26.4608428180218
1743371319277,17:48:39.277,-1,-1,0,2.403663003663,33.1058928788407
1743371319297,17:48:39.297,-1,-1,0,2.403663003663,33.1058928788407
1743371319316,17:48:39.316,-1,-1,0,2.403663003663,33.1058928788407
1743371319336,17:48:39.336,-1,-1,0,2.403663003663,33.1058928788407
1743371319355,17:48:39.355,-1,-1,0,2.403663003663,33.1058928788407
1743371319375,17:48:39.375,-1,-1,0,2.403663003663,33.1058928788407
1743371319394,17:48:39.394,-1,-1,0,2.40512820512821,33.1058928788407
1743371319414,17:48:39.414,-1,-1,0,2.40512820512821,33.1058928788407
1743371319433,17:48:39.433,-1,-1,0,2.40659340659341,33.1058928788407
1743371319453,17:48:39.453,-1,-1,0,2.40659340659341,33.1058928788407
1743371319472,17:48:39.472,-1,-1,0,2.40805860805861,33.1058928788407
1743371319492,17:48:39.492,-1,-1,0,2.40952380952381,33.1058928788407
1743371319511,17:48:39.511,-1,-1,0,2.41098901098901,33.1058928788407
1743371319531,17:48:39.531,-1,-1,0,2.41245421245421,33.1058928788407
1743371319550,17:48:39.550,-1,-1,0,2.41391941391941,33.1058928788407
1743371319570,17:48:39.570,-1,-1,0,2.41538461538462,33.1058928788407
1743371319589,17:48:39.589,-1,-1,0,2.41684981684982,33.1058928788407
1743371319609,17:48:39.609,-1,-1,0,2.41978021978022,33.1058928788407
1743371319628,17:48:39.628,-1,-1,0,2.42124542124542,33.1058928788407
1743371319648,17:48:39.648,-1,-1,0,2.42417582417582,33.1058928788407
1743371319667,17:48:39.667,-1,-1,0,2.42564102564103,33.1058928788407
1743371319687,17:48:39.687,-1,-1,0,2.42857142857143,33.1058928788407
1743371319706,17:48:39.706,-1,-1,153.846153846154,2.43150183150183,33.1058928788407
1743371319726,17:48:39.726,-1,-1,542.124542124542,2.43589743589744,33.1058928788407
1743371319745,17:48:39.745,-1,-1,863.736263736264,2.43882783882784,33.1058928788407
1743371319765,17:48:39.765,-1,-1,1079.85347985348,2.44175824175824,33.1058928788407
1743371319784,17:48:39.784,-1,-1,1191.20879120879,2.44468864468864,33.1058928788407
1743371319804,17:48:39.804,-1,-1,1226.37362637363,2.44761904761905,33.1058928788407
1743371319823,17:48:39.823,-1,-1,1243.95604395604,2.45201465201465,33.1058928788407
1743371319843,17:48:39.843,-1,-1,1227.83882783883,2.45494505494505,33.1058928788407
1743371319862,17:48:39.862,-1,-1,1201.4652014652,2.45934065934066,33.1058928788407
1743371319882,17:48:39.882,-1,-1,1165.56776556777,2.46373626373626,33.1058928788407
1743371319901,17:48:39.901,-1,-1,1125.27472527473,2.46813186813187,33.1058928788407
1743371319921,17:48:39.921,-1,-1,1084.98168498169,2.47252747252747,33.1058928788407
1743371319940,17:48:39.940,-1,-1,1038.09523809524,2.47692307692308,33.1058928788407
1743371319960,17:48:39.960,-1,-1,1013.91941391941,2.48131868131868,33.1058928788407
1743371319979,17:48:39.979,-1,-1,997.802197802198,2.48717948717949,33.1058928788407
1743371319999,17:48:39.999,-1,-1,983.150183150183,2.49157509157509,33.1058928788407
1743371320018,17:48:40.018,-1,-1,968.498168498168,2.4974358974359,33.1058928788407
1743371320038,17:48:40.038,-1,-1,952.380952380952,2.5018315018315,33.1058928788407
1743371320057,17:48:40.057,-1,-1,926.739926739927,2.50769230769231,33.1058928788407
1743371320077,17:48:40.077,-1,-1,909.157509157509,2.51501831501831,33.1058928788407
1743371320096,17:48:40.096,-1,-1,897.435897435897,2.52087912087912,33.1058928788407
1743371320116,17:48:40.116,-1,-1,903.296703296703,2.52673992673993,33.1058928788407
1743371320135,17:48:40.135,-1,-1,898.168498168498,2.53260073260073,33.1058928788407
1743371320155,17:48:40.155,-1,-1,875.457875457875,2.53846153846154,33.1058928788407
1743371320174,17:48:40.174,-1,-1,866.666666666667,2.54578754578755,33.1058928788407
1743371320194,17:48:40.194,-1,-1,865.934065934066,2.55311355311355,33.1058928788407
1743371320213,17:48:40.213,-1,-1,861.538461538461,2.55897435897436,33.1058928788407
1743371320233,17:48:40.233,-1,-1,846.153846153846,2.56483516483516,33.1058928788407
1743371320252,17:48:40.252,-1,-1,840.29304029304,2.57216117216117,33.1058928788407
1743371320272,17:48:40.272,-1,-1,860.07326007326,2.57948717948718,33.1309113632888
1743371320291,17:48:40.291,-1,-1,938.461538461538,2.58534798534799,33.1309113632888
1743371320311,17:48:40.311,-1,-1,1066.66666666667,2.59267399267399,33.1309113632888
1743371320330,17:48:40.330,-1,-1,1224.17582417582,2.5985347985348,33.1309113632888
1743371320350,17:48:40.350,-1,-1,1383.88278388278,2.6043956043956,33.1309113632888
1743371320369,17:48:40.369,-1,-1,1496.7032967033,2.61172161172161,33.1309113632888
1743371320389,17:48:40.389,-1,-1,1586.08058608059,2.61758241758242,33.1309113632888
1743371320408,17:48:40.408,-1,-1,1643.95604395604,2.62490842490842,33.1309113632888
1743371320428,17:48:40.428,-1,-1,1671.06227106227,2.63223443223443,33.1309113632888
1743371320447,17:48:40.447,-1,-1,1672.52747252747,2.63956043956044,33.1309113632888
1743371320467,17:48:40.467,-1,-1,1661.53846153846,2.64688644688645,33.1309113632888
1743371320486,17:48:40.486,-1,-1,1632.96703296703,2.65421245421245,33.1309113632888
1743371320506,17:48:40.506,-1,-1,1585.34798534799,2.66153846153846,33.1309113632888
1743371320525,17:48:40.525,-1,-1,1525.27472527473,2.66739926739927,33.1309113632888
1743371320545,17:48:40.545,-1,-1,1464.46886446886,2.67326007326007,33.1309113632888
1743371320564,17:48:40.564,-1,-1,1394.13919413919,2.67912087912088,33.1309113632888
1743371320584,17:48:40.584,-1,-1,1331.13553113553,2.68351648351648,33.1309113632888
1743371320603,17:48:40.603,-1,-1,1287.91208791209,2.68791208791209,33.1309113632888
1743371320623,17:48:40.623,-1,-1,1252.74725274725,2.69084249084249,33.1309113632888
1743371320642,17:48:40.642,-1,-1,1228.57142857143,2.6981684981685,33.1309113632888
1743371320662,17:48:40.662,-1,-1,1217.58241758242,2.71868131868132,33.1309113632888
1743371320681,17:48:40.681,-1,-1,1210.98901098901,2.72454212454212,33.1309113632888
1743371320701,17:48:40.701,-1,-1,1199.2673992674,2.72747252747253,33.1309113632888
1743371320720,17:48:40.720,-1,-1,1182.41758241758,2.73040293040293,33.1309113632888
1743371320740,17:48:40.740,-1,-1,1163.36996336996,2.73333333333333,33.1309113632888
1743371320759,17:48:40.759,-1,-1,1125.27472527473,2.73626373626374,33.1309113632888
1743371320779,17:48:40.779,-1,-1,1087.17948717949,2.74065934065934,33.1309113632888
1743371320798,17:48:40.798,-1,-1,1074.72527472527,2.74212454212454,33.1309113632888
1743371320818,17:48:40.818,-1,-1,1048.35164835165,2.74212454212454,33.1309113632888
1743371320837,17:48:40.837,-1,-1,1024.90842490842,2.74652014652015,33.1309113632888
1743371320857,17:48:40.857,-1,-1,1011.72161172161,2.74798534798535,33.1309113632888
1743371320876,17:48:40.876,-1,-1,1000,2.75091575091575,33.1309113632888
1743371320896,17:48:40.896,-1,-1,980.952380952381,2.75384615384615,33.1309113632888
1743371320915,17:48:40.915,-1,-1,959.70695970696,2.75531135531135,33.1309113632888
1743371320935,17:48:40.935,-1,-1,940.659340659341,2.75824175824176,33.1309113632888
1743371320954,17:48:40.954,-1,-1,928.937728937729,2.75970695970696,33.1309113632888
1743371320974,17:48:40.974,-1,-1,906.959706959707,2.76117216117216,33.1309113632888
1743371320993,17:48:40.993,-1,-1,887.912087912088,2.76410256410256,33.1309113632888
1743371321013,17:48:41.013,-1,-1,880.58608058608,2.76556776556777,33.1309113632888
1743371321032,17:48:41.032,-1,-1,884.981684981685,2.76703296703297,33.1309113632888
1743371321052,17:48:41.052,-1,-1,900.3663003663,2.76996336996337,33.1309113632888
1743371321071,17:48:41.071,-1,-1,920.14652014652,2.77142857142857,33.1309113632888
1743371321091,17:48:41.091,-1,-1,978.021978021978,2.77289377289377,33.1309113632888
1743371321110,17:48:41.110,-1,-1,1095.9706959707,2.77582417582418,33.1309113632888
1743371321130,17:48:41.130,-1,-1,1254.94505494505,2.77875457875458,33.1309113632888
1743371321149,17:48:41.149,-1,-1,1421.24542124542,2.78021978021978,33.1309113632888
1743371321169,17:48:41.169,-1,-1,1550.91575091575,2.78315018315018,33.1309113632888
1743371321188,17:48:41.188,-1,-1,1650.54945054945,2.78315018315018,33.1309113632888
1743371321208,17:48:41.208,-1,-1,1701.8315018315,2.78461538461538,33.1309113632888
1743371321227,17:48:41.227,-1,-1,1736.99633699634,2.78608058608059,33.1309113632888
1743371321247,17:48:41.247,-1,-1,1762.63736263736,2.78754578754579,33.1309113632888
1743371321266,17:48:41.266,-1,-1,1766.30036630037,2.78754578754579,33.1559297022177
1743371321286,17:48:41.286,-1,-1,1738.46153846154,2.78608058608059,33.1559297022177
1743371321305,17:48:41.305,-1,-1,1684.98168498168,2.78461538461538,33.1559297022177
1743371321325,17:48:41.325,-1,-1,1605.86080586081,2.78461538461538,33.1559297022177
1743371321344,17:48:41.344,-1,-1,1526.73992673993,2.78461538461538,33.1559297022177
1743371321364,17:48:41.364,-1,-1,1464.46886446886,2.78461538461538,33.1559297022177
1743371321383,17:48:41.383,-1,-1,1408.79120879121,2.78461538461538,33.1559297022177
1743371321403,17:48:41.403,-1,-1,1375.82417582418,2.78608058608059,33.1559297022177
1743371321422,17:48:41.422,-1,-1,1372.16117216117,2.78608058608059,33.1559297022177
1743371321442,17:48:41.442,-1,-1,1369.96336996337,2.78608058608059,33.1559297022177
1743371321461,17:48:41.461,-1,-1,1363.36996336996,2.78608058608059,33.1559297022177
1743371321481,17:48:41.481,-1,-1,1340.65934065934,2.78608058608059,33.1559297022177
1743371321500,17:48:41.500,-1,-1,1309.15750915751,2.78608058608059,33.1559297022177
1743371321520,17:48:41.520,-1,-1,1287.91208791209,2.78608058608059,33.1559297022177
1743371321539,17:48:41.539,-1,-1,1260.07326007326,2.78608058608059,33.1559297022177
1743371321559,17:48:41.559,-1,-1,1236.63003663004,2.78608058608059,33.1559297022177
1743371321578,17:48:41.578,-1,-1,1205.86080586081,2.78608058608059,33.1559297022177
1743371321598,17:48:41.598,-1,-1,1163.36996336996,2.78461538461538,33.1559297022177
1743371321617,17:48:41.617,-1,-1,1141.39194139194,2.78461538461538,33.1559297022177
1743371321637,17:48:41.637,-1,-1,1123.07692307692,2.78315018315018,33.1559297022177
1743371321656,17:48:41.656,-1,-1,1101.0989010989,2.78315018315018,33.1559297022177
1743371321676,17:48:41.676,-1,-1,1090.84249084249,2.78168498168498,33.1559297022177
1743371321695,17:48:41.695,-1,-1,1077.65567765568,2.78168498168498,33.1559297022177
1743371321715,17:48:41.715,-1,-1,1065.93406593407,2.78021978021978,33.1559297022177
1743371321734,17:48:41.734,-1,-1,1038.82783882784,2.77875457875458,33.1559297022177
1743371321754,17:48:41.754,-1,-1,1008.05860805861,2.77728937728938,33.1559297022177
1743371321773,17:48:41.773,-1,-1,1000,2.77582417582418,33.1559297022177
1743371321793,17:48:41.793,-1,-1,1013.91941391941,2.77582417582418,33.1559297022177
1743371321812,17:48:41.812,-1,-1,1049.81684981685,2.77435897435897,33.1559297022177
1743371321832,17:48:41.832,-1,-1,1145.78754578755,2.77142857142857,33.1559297022177
1743371321851,17:48:41.851,-1,-1,1298.1684981685,2.77142857142857,33.1559297022177
1743371321871,17:48:41.871,-1,-1,1481.31868131868,2.76996336996337,33.1559297022177
1743371321890,17:48:41.890,-1,-1,1670.32967032967,2.76849816849817,33.1559297022177
1743371321910,17:48:41.910,-1,-1,1827.83882783883,2.76703296703297,33.1559297022177
1743371321929,17:48:41.929,-1,-1,1954.57875457875,2.76556776556777,33.1559297022177
1743371321949,17:48:41.949,-1,-1,2024.90842490842,2.76410256410256,33.1559297022177
1743371321968,17:48:41.968,-1,-1,2043.95604395604,2.76117216117216,33.1559297022177
1743371321988,17:48:41.988,-1,-1,2033.69963369963,2.75970695970696,33.1559297022177
1743371322007,17:48:42.007,-1,-1,1991.20879120879,2.75824175824176,33.1559297022177
1743371322027,17:48:42.027,-1,-1,1942.85714285714,2.75677655677656,33.1559297022177
1743371322046,17:48:42.046,-1,-1,1895.9706959707,2.75384615384615,33.1559297022177
1743371322066,17:48:42.066,-1,-1,1832.96703296703,2.75238095238095,33.1559297022177
1743371322085,17:48:42.085,-1,-1,1755.31135531136,2.74945054945055,33.1559297022177
1743371322105,17:48:42.105,-1,-1,1661.53846153846,2.74798534798535,33.1559297022177
1743371322124,17:48:42.124,-1,-1,1572.89377289377,2.74652014652015,33.1559297022177
1743371322144,17:48:42.144,-1,-1,1494.50549450549,2.74358974358974,33.1559297022177
1743371322163,17:48:42.163,-1,-1,1431.50183150183,2.74212454212454,33.1559297022177
1743371322183,17:48:42.183,-1,-1,1368.49816849817,2.73919413919414,33.1559297022177
1743371322202,17:48:42.202,-1,-1,1314.28571428571,2.73772893772894,33.1559297022177
1743371322222,17:48:42.222,-1,-1,1278.38827838828,2.73479853479853,33.1559297022177
1743371322241,17:48:42.241,-1,-1,1254.94505494505,2.73333333333333,33.1559297022177
1743371322261,17:48:42.261,-1,-1,1227.10622710623,2.73040293040293,33.1659369970439
1743371322281,17:48:42.280,-1,-1,1200.7326007326,2.72893772893773,33.1659369970439
1743371322300,17:48:42.300,-1,-1,1185.34798534799,2.72600732600733,33.1659369970439
1743371322320,17:48:42.319,-1,-1,1182.41758241758,2.72307692307692,33.1659369970439
1743371322339,17:48:42.339,-1,-1,1172.16117216117,2.72161172161172,33.1659369970439
1743371322359,17:48:42.358,-1,-1,1162.63736263736,2.71868131868132,33.1659369970439
1743371322378,17:48:42.378,-1,-1,1167.03296703297,2.71721611721612,33.1659369970439
1743371322398,17:48:42.398,-1,-1,1162.63736263736,2.71428571428571,33.1659369970439
1743371322417,17:48:42.417,-1,-1,1154.57875457875,2.71282051282051,33.1659369970439
1743371322437,17:48:42.437,-1,-1,1138.46153846154,2.70989010989011,33.1659369970439
1743371322456,17:48:42.456,-1,-1,1115.01831501831,2.70842490842491,33.1659369970439
1743371322476,17:48:42.476,-1,-1,1095.2380952381,2.70695970695971,33.1659369970439
1743371322495,17:48:42.495,-1,-1,1074.72527472527,2.7040293040293,33.1659369970439
1743371322515,17:48:42.515,-1,-1,1048.35164835165,2.7025641025641,33.1659369970439
1743371322534,17:48:42.534,-1,-1,1041.02564102564,2.6996336996337,33.1659369970439
1743371322554,17:48:42.554,-1,-1,1082.78388278388,2.6981684981685,33.1659369970439
1743371322573,17:48:42.573,-1,-1,1205.12820512821,2.69523809523809,33.1659369970439
1743371322593,17:48:42.593,-1,-1,1404.3956043956,2.69377289377289,33.1659369970439
1743371322612,17:48:42.612,-1,-1,1618.31501831502,2.69230769230769,33.1659369970439
1743371322632,17:48:42.632,-1,-1,1816.11721611722,2.68937728937729,33.1659369970439
1743371322651,17:48:42.651,-1,-1,1964.83516483516,2.68791208791209,33.1659369970439
1743371322671,17:48:42.671,-1,-1,2069.59706959707,2.68498168498168,33.1659369970439
1743371322690,17:48:42.690,-1,-1,2126.73992673993,2.68351648351648,33.1659369970439
1743371322710,17:48:42.710,-1,-1,2133.33333333333,2.68205128205128,33.1659369970439
1743371322729,17:48:42.729,-1,-1,2109.89010989011,2.67912087912088,33.1659369970439
1743371322749,17:48:42.749,-1,-1,2073.26007326007,2.67765567765568,33.1659369970439
1743371322768,17:48:42.768,-1,-1,2033.69963369963,2.67472527472527,33.1659369970439
1743371322788,17:48:42.788,-1,-1,1956.04395604396,2.67326007326007,33.1659369970439
1743371322807,17:48:42.807,-1,-1,1838.09523809524,2.67179487179487,33.1659369970439
1743371322827,17:48:42.827,-1,-1,1730.40293040293,2.66886446886447,33.1659369970439
1743371322846,17:48:42.846,-1,-1,1638.82783882784,2.66739926739927,33.1659369970439
1743371322866,17:48:42.866,-1,-1,1554.57875457875,2.66593406593407,33.1659369970439
1743371322885,17:48:42.885,-1,-1,1482.05128205128,2.66300366300366,33.1659369970439
1743371322905,17:48:42.905,-1,-1,1441.75824175824,2.66153846153846,33.1659369970439
1743371322924,17:48:42.924,-1,-1,1428.57142857143,2.65860805860806,33.1659369970439
1743371322944,17:48:42.944,-1,-1,1435.16483516484,2.65714285714286,33.1659369970439
1743371322963,17:48:42.963,-1,-1,1435.16483516484,2.65567765567766,33.1659369970439
1743371322983,17:48:42.983,-1,-1,1415.38461538462,2.65274725274725,33.1659369970439
1743371323002,17:48:43.002,-1,-1,1378.75457875458,2.65128205128205,33.1659369970439
1743371323022,17:48:43.022,-1,-1,1328.93772893773,2.64981684981685,33.1659369970439
1743371323041,17:48:43.041,-1,-1,1288.64468864469,2.64835164835165,33.1659369970439
1743371323061,17:48:43.061,-1,-1,1256.41025641026,2.64542124542125,33.1659369970439
1743371323080,17:48:43.080,-1,-1,1221.97802197802,2.64395604395604,33.1659369970439
1743371323100,17:48:43.100,-1,-1,1182.41758241758,2.64249084249084,33.1659369970439
1743371323119,17:48:43.119,-1,-1,1158.97435897436,2.63956043956044,33.1659369970439
1743371323139,17:48:43.139,-1,-1,1144.32234432234,2.63809523809524,33.1659369970439
1743371323158,17:48:43.158,-1,-1,1123.80952380952,2.63663003663004,33.1659369970439
1743371323178,17:48:43.178,-1,-1,1106.22710622711,2.63516483516484,33.1659369970439
1743371323197,17:48:43.197,-1,-1,1080.58608058608,2.63369963369963,33.1659369970439
1743371323217,17:48:43.217,-1,-1,1064.46886446886,2.63223443223443,33.1659369970439
1743371323236,17:48:43.236,-1,-1,1058.60805860806,2.62930402930403,33.1659369970439
1743371323256,17:48:43.256,-1,-1,1071.79487179487,2.62783882783883,33.1859515168471
1743371323275,17:48:43.275,-1,-1,1128.20512820513,2.62637362637363,33.1859515168471
1743371323295,17:48:43.295,-1,-1,1257.14285714286,2.62490842490842,33.1859515168471
1743371323314,17:48:43.314,-1,-1,1462.27106227106,2.62344322344322,33.1859515168471
1743371323334,17:48:43.334,-1,-1,1684.24908424908,2.62197802197802,33.1859515168471
1743371323353,17:48:43.353,-1,-1,1868.13186813187,2.62197802197802,33.1859515168471
1743371323373,17:48:43.373,-1,-1,2001.4652014652,2.61904761904762,33.1859515168471
1743371323392,17:48:43.392,-1,-1,2098.9010989011,2.61758241758242,33.1859515168471
1743371323412,17:48:43.412,-1,-1,2139.92673992674,2.61611721611722,33.1859515168471
1743371323431,17:48:43.431,-1,-1,2136.26373626374,2.61611721611722,33.1859515168471
1743371323451,17:48:43.451,-1,-1,2089.37728937729,2.61318681318681,33.1859515168471
1743371323470,17:48:43.470,-1,-1,2022.71062271062,2.61172161172161,33.1859515168471
1743371323490,17:48:43.490,-1,-1,1948.71794871795,2.61025641025641,33.1859515168471
1743371323509,17:48:43.509,-1,-1,1875.45787545788,2.60879120879121,33.1859515168471
1743371323529,17:48:43.529,-1,-1,1789.01098901099,2.60732600732601,33.1859515168471
1743371323548,17:48:43.548,-1,-1,1705.49450549451,2.60732600732601,33.1859515168471
1743371323568,17:48:43.568,-1,-1,1624.17582417582,2.6043956043956,33.1859515168471
1743371323587,17:48:43.587,-1,-1,1579.48717948718,2.6029304029304,33.1859515168471
1743371323607,17:48:43.607,-1,-1,1544.32234432234,2.6014652014652,33.1859515168471
1743371323626,17:48:43.626,-1,-1,1499.6336996337,2.6,33.1859515168471
1743371323646,17:48:43.646,-1,-1,1454.94505494505,2.5985347985348,33.1859515168471
1743371323665,17:48:43.665,-1,-1,1407.32600732601,2.5956043956044,33.1859515168471
1743371323685,17:48:43.685,-1,-1,1364.83516483516,2.59267399267399,33.1859515168471
1743371323704,17:48:43.704,-1,-1,1320.87912087912,2.58974358974359,33.1859515168471
1743371323724,17:48:43.724,-1,-1,1270.32967032967,2.58681318681319,33.1859515168471
1743371323743,17:48:43.743,-1,-1,1238.09523809524,2.58534798534799,33.1859515168471
1743371323763,17:48:43.763,-1,-1,1221.97802197802,2.58241758241758,33.1859515168471
1743371323782,17:48:43.782,-1,-1,1195.6043956044,2.58241758241758,33.1859515168471
1743371323802,17:48:43.802,-1,-1,1170.69597069597,2.57948717948718,33.1859515168471
1743371323821,17:48:43.821,-1,-1,1158.97435897436,2.57802197802198,33.1859515168471
1743371323841,17:48:43.841,-1,-1,1147.98534798535,2.57655677655678,33.1859515168471
1743371323860,17:48:43.860,-1,-1,1131.86813186813,2.57509157509157,33.1859515168471
1743371323880,17:48:43.880,-1,-1,1106.22710622711,2.57362637362637,33.1859515168471
1743371323899,17:48:43.899,-1,-1,1098.1684981685,2.57216117216117,33.1859515168471
1743371323919,17:48:43.919,-1,-1,1082.05128205128,2.57069597069597,33.1859515168471
1743371323938,17:48:43.938,-1,-1,1095.2380952381,2.56923076923077,33.1859515168471
1743371323958,17:48:43.958,-1,-1,1155.31135531136,2.56923076923077,33.1859515168471
1743371323977,17:48:43.977,-1,-1,1268.86446886447,2.56776556776557,33.1859515168471
1743371323997,17:48:43.997,-1,-1,1430.03663003663,2.56776556776557,33.1859515168471
1743371324016,17:48:44.016,-1,-1,1602.1978021978,2.56630036630037,33.1859515168471
1743371324036,17:48:44.036,-1,-1,1758.24175824176,2.56483516483516,33.1859515168471
1743371324055,17:48:44.055,-1,-1,1877.65567765568,2.56483516483516,33.1859515168471
1743371324075,17:48:44.075,-1,-1,1956.04395604396,2.56336996336996,33.1859515168471
1743371324094,17:48:44.094,-1,-1,1983.88278388278,2.56190476190476,33.1859515168471
1743371324114,17:48:44.114,-1,-1,1978.02197802198,2.56043956043956,33.1859515168471
1743371324133,17:48:44.133,-1,-1,1944.32234432234,2.55897435897436,33.1859515168471
1743371324153,17:48:44.153,-1,-1,1915.01831501831,2.55897435897436,33.1859515168471
1743371324172,17:48:44.172,-1,-1,1864.46886446886,2.55750915750916,33.1859515168471
1743371324192,17:48:44.192,-1,-1,1772.89377289377,2.55750915750916,33.1859515168471
1743371324211,17:48:44.211,-1,-1,1672.52747252747,2.55604395604396,33.1859515168471
1743371324231,17:48:44.231,-1,-1,1578.75457875458,2.55457875457875,33.1859515168471
1743371324250,17:48:44.250,-1,-1,1509.15750915751,2.55311355311355,33.2059659435181
1743371324270,17:48:44.270,-1,-1,1465.93406593407,2.55164835164835,33.2059659435181
1743371324289,17:48:44.289,-1,-1,1438.09523809524,2.49157509157509,33.2059659435181
1743371324309,17:48:44.309,-1,-1,1414.65201465201,2.47252747252747,33.2059659435181
1743371324328,17:48:44.328,-1,-1,1387.54578754579,2.45934065934066,33.2059659435181
1743371324348,17:48:44.348,-1,-1,1364.83516483516,2.45201465201465,33.2059659435181
1743371324367,17:48:44.367,-1,-1,1350.18315018315,2.44615384615385,33.2059659435181
1743371324387,17:48:44.387,-1,-1,1331.86813186813,2.44175824175824,33.2059659435181
1743371324406,17:48:44.406,-1,-1,1293.77289377289,2.44029304029304,33.2059659435181
1743371324426,17:48:44.426,-1,-1,1264.46886446886,2.43736263736264,33.2059659435181
1743371324445,17:48:44.445,-1,-1,1222.71062271062,2.43443223443223,33.2059659435181
1743371324465,17:48:44.465,-1,-1,1178.02197802198,2.43150183150183,33.2059659435181
1743371324484,17:48:44.484,-1,-1,1142.12454212454,2.42564102564103,33.2059659435181
1743371324504,17:48:44.504,-1,-1,1107.69230769231,2.41978021978022,33.2059659435181
1743371324523,17:48:44.523,-1,-1,1073.99267399267,2.41391941391941,33.2059659435181
1743371324543,17:48:44.543,-1,-1,1049.08424908425,2.41098901098901,33.2059659435181
1743371324562,17:48:44.562,-1,-1,1026.37362637363,2.40805860805861,33.2059659435181
1743371324582,17:48:44.582,-1,-1,1000,2.40659340659341,33.2059659435181
1743371324601,17:48:44.601,-1,-1,1024.90842490842,2.403663003663,33.2059659435181
1743371324621,17:48:44.621,-1,-1,1132.60073260073,2.403663003663,33.2059659435181
1743371324640,17:48:44.640,-1,-1,1309.89010989011,2.40512820512821,33.2059659435181
1743371324660,17:48:44.660,-1,-1,1500.3663003663,2.403663003663,33.2059659435181
1743371324679,17:48:44.679,-1,-1,1670.32967032967,2.40659340659341,33.2059659435181
1743371324699,17:48:44.699,-1,-1,1798.5347985348,2.41245421245421,33.2059659435181
1743371324718,17:48:44.718,-1,-1,1871.06227106227,2.41978021978022,33.2059659435181
1743371324738,17:48:44.738,-1,-1,1904.0293040293,2.43150183150183,33.2059659435181
1743371324757,17:48:44.757,-1,-1,1920.14652014652,2.29377289377289,33.2059659435181
1743371324777,17:48:44.777,-1,-1,1929.67032967033,2.25714285714286,33.2059659435181
1743371324796,17:48:44.796,-1,-1,1919.41391941392,2.26446886446886,33.2059659435181
1743371324816,17:48:44.816,-1,-1,1875.45787545788,2.27032967032967,33.2059659435181
1743371324835,17:48:44.835,-1,-1,1813.18681318681,2.27326007326007,33.2059659435181
1743371324855,17:48:44.855,-1,-1,1717.21611721612,2.27619047619048,33.2059659435181
1743371324874,17:48:44.874,-1,-1,1616.11721611722,2.27765567765568,33.2059659435181
1743371324894,17:48:44.894,-1,-1,1512.08791208791,2.27765567765568,33.2059659435181
1743371324913,17:48:44.913,-1,-1,1417.58241758242,2.27765567765568,33.2059659435181
1743371324933,17:48:44.933,-1,-1,1364.10256410256,2.27619047619048,33.2059659435181
1743371324952,17:48:44.952,-1,-1,1328.20512820513,2.27179487179487,33.2059659435181
1743371324972,17:48:44.972,-1,-1,1299.6336996337,2.26593406593407,33.2059659435181
1743371324991,17:48:44.991,-1,-1,1275.45787545788,2.26446886446886,33.2059659435181
1743371325011,17:48:45.011,-1,-1,1257.87545787546,2.26593406593407,33.2059659435181
1743371325030,17:48:45.030,-1,-1,1213.91941391941,2.26739926739927,33.2059659435181
1743371325050,17:48:45.050,-1,-1,1175.82417582418,2.26739926739927,33.2059659435181
1743371325069,17:48:45.069,-1,-1,1145.78754578755,2.26593406593407,33.2059659435181
1743371325089,17:48:45.089,-1,-1,1114.28571428571,2.26593406593407,33.2059659435181
1743371325108,17:48:45.108,-1,-1,1085.71428571429,2.26446886446886,33.2059659435181
1743371325128,17:48:45.128,-1,-1,1059.34065934066,2.26300366300366,33.2059659435181
1743371325147,17:48:45.147,-1,-1,1038.82783882784,2.26007326007326,33.2059659435181
1743371325167,17:48:45.167,-1,-1,1023.44322344322,2.25860805860806,33.2059659435181
1743371325186,17:48:45.186,-1,-1,999.267399267399,2.25714285714286,33.2059659435181
1743371325206,17:48:45.206,-1,-1,982.417582417582,2.25567765567766,33.2059659435181
1743371325225,17:48:45.225,-1,-1,971.428571428571,2.23223443223443,33.2059659435181
1743371325245,17:48:45.245,-1,-1,955.311355311355,2.22783882783883,33.2309838458896
1743371325264,17:48:45.264,-1,-1,982.417582417582,2.23223443223443,33.2309838458896
1743371325284,17:48:45.284,-1,-1,1060.07326007326,2.23956043956044,33.2309838458896
1743371325303,17:48:45.303,-1,-1,1186.08058608059,2.23956043956044,33.2309838458896
1743371325323,17:48:45.323,-1,-1,1335.53113553114,2.23956043956044,33.2309838458896
1743371325342,17:48:45.342,-1,-1,1471.79487179487,2.23956043956044,33.2309838458896
1743371325362,17:48:45.362,-1,-1,1588.27838827839,2.23809523809524,33.2309838458896
1743371325381,17:48:45.381,-1,-1,1670.32967032967,2.23663003663004,33.2309838458896
1743371325401,17:48:45.401,-1,-1,1727.47252747253,2.23516483516484,33.2309838458896
1743371325420,17:48:45.420,-1,-1,1745.05494505494,2.23369963369963,33.2309838458896
1743371325440,17:48:45.440,-1,-1,1739.19413919414,2.23369963369963,33.2309838458896
1743371325459,17:48:45.459,-1,-1,1713.55311355311,2.23369963369963,33.2309838458896
1743371325479,17:48:45.479,-1,-1,1668.86446886447,2.23369963369963,33.2309838458896
1743371325498,17:48:45.498,-1,-1,1607.32600732601,2.23223443223443,33.2309838458896
1743371325518,17:48:45.518,-1,-1,1536.99633699634,2.23076923076923,33.2309838458896
1743371325537,17:48:45.537,-1,-1,1463.73626373626,2.23076923076923,33.2309838458896
1743371325557,17:48:45.557,-1,-1,1380.95238095238,2.22930402930403,33.2309838458896
1743371325576,17:48:45.576,-1,-1,1306.22710622711,2.22930402930403,33.2309838458896
1743371325596,17:48:45.596,-1,-1,1260.07326007326,2.23076923076923,33.2309838458896
1743371325615,17:48:45.615,-1,-1,1229.30402930403,2.23076923076923,33.2309838458896
1743371325635,17:48:45.635,-1,-1,1209.52380952381,2.23516483516484,33.2309838458896
1743371325654,17:48:45.654,-1,-1,1189.74358974359,2.23809523809524,33.2309838458896
1743371325674,17:48:45.674,-1,-1,1178.75457875458,2.24688644688645,33.2309838458896
1743371325693,17:48:45.693,-1,-1,1165.56776556777,2.25274725274725,33.2309838458896
1743371325713,17:48:45.713,-1,-1,1153.84615384615,2.25860805860806,33.2309838458896
1743371325732,17:48:45.732,-1,-1,1121.61172161172,2.26300366300366,33.2309838458896
1743371325752,17:48:45.752,-1,-1,1079.85347985348,2.26446886446886,33.2309838458896
1743371325771,17:48:45.771,-1,-1,1035.16483516484,2.26739926739927,33.2309838458896
1743371325791,17:48:45.791,-1,-1,983.882783882784,2.27032967032967,33.2309838458896
1743371325810,17:48:45.810,-1,-1,960.43956043956,2.27326007326007,33.2309838458896
1743371325830,17:48:45.830,-1,-1,945.054945054945,2.27765567765568,33.2309838458896
1743371325849,17:48:45.849,-1,-1,923.809523809524,2.28205128205128,33.2309838458896
1743371325869,17:48:45.869,-1,-1,906.959706959707,2.28351648351648,33.2309838458896
1743371325888,17:48:45.888,-1,-1,901.831501831502,2.28058608058608,33.2309838458896
1743371325908,17:48:45.908,-1,-1,890.10989010989,2.27912087912088,33.2309838458896
1743371325927,17:48:45.927,-1,-1,864.468864468864,2.27912087912088,33.2309838458896
1743371325947,17:48:45.947,-1,-1,855.677655677656,2.25128205128205,33.2309838458896
1743371325966,17:48:45.966,-1,-1,847.619047619048,2.20879120879121,33.2309838458896
1743371325986,17:48:45.986,-1,-1,851.282051282051,2.19560439560439,33.2309838458896
1743371326005,17:48:46.005,-1,-1,849.084249084249,2.18974358974359,33.2309838458896
1743371326025,17:48:46.025,-1,-1,843.956043956044,2.18974358974359,33.2309838458896
1743371326044,17:48:46.044,-1,-1,832.234432234432,2.18681318681319,33.2309838458896
1743371326064,17:48:46.064,-1,-1,852.014652014652,2.18388278388278,33.2309838458896
1743371326083,17:48:46.083,-1,-1,936.996336996337,2.18388278388278,33.2309838458896
1743371326103,17:48:46.103,-1,-1,1054.21245421245,2.17655677655678,33.2309838458896
1743371326122,17:48:46.122,-1,-1,1194.13919413919,2.16923076923077,33.2309838458896
1743371326142,17:48:46.142,-1,-1,1324.54212454212,2.16483516483516,33.2309838458896
1743371326161,17:48:46.161,-1,-1,1405.12820512821,2.16043956043956,33.2309838458896
1743371326181,17:48:46.181,-1,-1,1425.64102564103,2.11941391941392,33.2309838458896
1743371326200,17:48:46.200,-1,-1,1432.23443223443,2.0974358974359,33.2309838458896
1743371326220,17:48:46.220,-1,-1,1437.36263736264,2.04029304029304,33.2309838458896
1743371326239,17:48:46.239,-1,-1,1430.76923076923,2.02124542124542,33.2459945174633
1743371326259,17:48:46.259,-1,-1,1411.72161172161,2.00952380952381,33.2459945174633
1743371326278,17:48:46.278,-1,-1,1382.41758241758,1.9992673992674,33.2459945174633
1743371326298,17:48:46.298,-1,-1,1334.79853479853,1.96849816849817,33.2459945174633
1743371326317,17:48:46.317,-1,-1,1270.32967032967,1.93186813186813,33.2459945174633
1743371326337,17:48:46.337,-1,-1,1225.64102564103,1.9054945054945,33.2459945174633
1743371326356,17:48:46.356,-1,-1,1196.336996337,1.89230769230769,33.2459945174633
1743371326376,17:48:46.376,-1,-1,1161.90476190476,1.88058608058608,33.2459945174633
1743371326395,17:48:46.395,-1,-1,1142.85714285714,1.86739926739927,33.2459945174633
1743371326415,17:48:46.415,-1,-1,1126.73992673993,1.85714285714286,33.2459945174633
1743371326434,17:48:46.434,-1,-1,1101.0989010989,1.84835164835165,33.2459945174633
1743371326454,17:48:46.454,-1,-1,1069.59706959707,1.83956043956044,33.2459945174633
1743371326473,17:48:46.473,-1,-1,1051.28205128205,1.82930402930403,33.2459945174633
1743371326493,17:48:46.493,-1,-1,1038.82783882784,1.82051282051282,33.2459945174633
1743371326512,17:48:46.512,-1,-1,1019.04761904762,1.81611721611722,33.2459945174633
1743371326532,17:48:46.532,-1,-1,1001.4652014652,1.81172161172161,33.2459945174633
1743371326551,17:48:46.551,-1,-1,983.150183150183,1.80732600732601,33.2459945174633
1743371326571,17:48:46.571,-1,-1,958.241758241758,1.8043956043956,33.2459945174633
1743371326590,17:48:46.590,-1,-1,931.868131868132,1.8014652014652,33.2459945174633
1743371326610,17:48:46.610,-1,-1,907.692307692308,1.7985347985348,33.2459945174633
1743371326629,17:48:46.629,81,-1,884.981684981685,1.79413919413919,33.2459945174633
1743371326649,17:48:46.649,81,-1,868.864468864469,1.79120879120879,33.2459945174633
1743371326668,17:48:46.668,81,-1,864.468864468864,1.78827838827839,33.2459945174633
1743371326688,17:48:46.688,81,-1,865.201465201465,1.78388278388278,33.2459945174633
1743371326707,17:48:46.707,81,-1,868.864468864469,1.77948717948718,33.2459945174633
1743371326727,17:48:46.727,81,-1,863.003663003663,1.77362637362637,33.2459945174633
1743371326746,17:48:46.746,81,-1,852.747252747253,1.76776556776557,33.2459945174633
1743371326766,17:48:46.766,81,-1,826.373626373626,1.76190476190476,33.2459945174633
1743371326785,17:48:46.785,81,-1,812.454212454212,1.75457875457875,33.2459945174633
1743371326805,17:48:46.805,81,-1,808.791208791209,1.74871794871795,33.2459945174633
1743371326824,17:48:46.824,81,-1,803.663003663004,1.74432234432234,33.2459945174633
1743371326844,17:48:46.844,81,-1,817.582417582418,1.73846153846154,33.2459945174633
1743371326863,17:48:46.863,81,-1,852.747252747253,1.73406593406593,33.2459945174633
1743371326883,17:48:46.883,81,-1,915.018315018315,1.72967032967033,33.2459945174633
1743371326902,17:48:46.902,81,-1,988.278388278388,1.72527472527472,33.2459945174633
1743371326922,17:48:46.922,81,-1,1060.07326007326,1.72087912087912,33.2459945174633
1743371326941,17:48:46.941,81,-1,1132.60073260073,1.71794871794872,33.2459945174633
1743371326961,17:48:46.961,81,-1,1194.13919413919,1.71501831501831,33.2459945174633
1743371326980,17:48:46.980,81,-1,1235.16483516484,1.71062271062271,33.2459945174633
1743371327000,17:48:47.000,81,-1,1251.28205128205,1.70769230769231,33.2459945174633
1743371327019,17:48:47.019,81,-1,1261.53846153846,1.7047619047619,33.2459945174633
1743371327039,17:48:47.039,81,-1,1268.13186813187,1.7003663003663,33.2459945174633
1743371327058,17:48:47.058,81,-1,1254.21245421245,1.6974358974359,33.2459945174633
1743371327078,17:48:47.078,81,-1,1224.17582417582,1.6959706959707,33.2459945174633
1743371327097,17:48:47.097,81,-1,1180.95238095238,1.69304029304029,33.2459945174633
1743371327117,17:48:47.117,81,-1,1155.31135531136,1.69010989010989,33.2459945174633
1743371327136,17:48:47.136,81,-1,1131.86813186813,1.68717948717949,33.2459945174633
1743371327156,17:48:47.156,81,-1,1112.08791208791,1.68424908424908,33.2459945174633
1743371327175,17:48:47.175,81,-1,1104.7619047619,1.68131868131868,33.2459945174633
1743371327195,17:48:47.195,81,-1,1085.71428571429,1.67838827838828,33.2459945174633
1743371327214,17:48:47.214,81,-1,1070.32967032967,1.67545787545788,33.2459945174633
1743371327234,17:48:47.234,81,-1,1041.02564102564,1.67252747252747,33.2610051366501
1743371327253,17:48:47.253,81,-1,1024.90842490842,1.66959706959707,33.2610051366501
1743371327273,17:48:47.273,81,-1,1023.44322344322,1.66666666666667,33.2610051366501
1743371327292,17:48:47.292,81,-1,1015.38461538462,1.66520146520147,33.2610051366501
1743371327312,17:48:47.312,81,-1,998.534798534798,1.66227106227106,33.2610051366501
1743371327331,17:48:47.331,81,-1,972.893772893773,1.66080586080586,33.2610051366501
1743371327351,17:48:47.351,83,-1,967.765567765568,1.65787545787546,33.2610051366501
1743371327370,17:48:47.370,83,-1,969.96336996337,1.65641025641026,33.2610051366501
1743371327390,17:48:47.390,83,-1,967.032967032967,1.65347985347985,33.2610051366501
1743371327409,17:48:47.409,83,-1,954.578754578755,1.65054945054945,33.2610051366501
1743371327429,17:48:47.429,83,-1,931.135531135531,1.64908424908425,33.2610051366501
1743371327448,17:48:47.448,83,-1,909.89010989011,1.64761904761905,33.2610051366501
1743371327468,17:48:47.468,83,-1,901.831501831502,1.64761904761905,33.2610051366501
1743371327487,17:48:47.487,83,-1,905.494505494505,1.64468864468864,33.2610051366501
1743371327507,17:48:47.507,83,-1,912.087912087912,1.64322344322344,33.2610051366501
1743371327526,17:48:47.526,83,-1,901.831501831502,1.64029304029304,33.2610051366501
1743371327546,17:48:47.546,83,-1,899.6336996337,1.63882783882784,33.2610051366501
1743371327565,17:48:47.565,83,-1,895.238095238095,1.63589743589744,33.2610051366501
1743371327585,17:48:47.585,83,-1,889.377289377289,1.63443223443223,33.2610051366501
1743371327604,17:48:47.604,83,-1,898.168498168498,1.63296703296703,33.2610051366501
1743371327624,17:48:47.624,83,-1,909.89010989011,1.63150183150183,33.2610051366501
1743371327643,17:48:47.643,83,-1,945.054945054945,1.62857142857143,33.2610051366501
1743371327663,17:48:47.663,83,-1,1007.32600732601,1.62710622710623,33.2610051366501
1743371327682,17:48:47.682,83,-1,1073.26007326007,1.62417582417582,33.2610051366501
1743371327702,17:48:47.702,83,-1,1136.99633699634,1.62271062271062,33.2610051366501
1743371327721,17:48:47.721,83,-1,1202.1978021978,1.62124542124542,33.2610051366501
1743371327741,17:48:47.741,83,-1,1258.60805860806,1.61978021978022,33.2610051366501
1743371327760,17:48:47.760,83,-1,1298.1684981685,1.61831501831502,33.2610051366501
1743371327780,17:48:47.780,83,-1,1326.00732600733,1.61684981684982,33.2610051366501
1743371327799,17:48:47.799,83,-1,1343.58974358974,1.61538461538462,33.2610051366501
1743371327819,17:48:47.819,83,-1,1350.18315018315,1.61391941391941,33.2610051366501
1743371327838,17:48:47.838,83,-1,1355.31135531136,1.61098901098901,33.2610051366501
1743371327858,17:48:47.858,83,-1,1349.45054945055,1.60952380952381,33.2610051366501
1743371327877,17:48:47.877,83,-1,1328.20512820513,1.60805860805861,33.2610051366501
1743371327897,17:48:47.897,83,-1,1288.64468864469,1.60512820512821,33.2610051366501
1743371327916,17:48:47.916,83,-1,1249.08424908425,1.60512820512821,33.2610051366501
1743371327936,17:48:47.936,83,-1,1233.69963369963,1.603663003663,33.2610051366501
1743371327955,17:48:47.955,83,-1,1216.84981684982,1.6021978021978,33.2610051366501
1743371327975,17:48:47.975,83,-1,1214.65201465201,1.6007326007326,33.2610051366501
1743371327994,17:48:47.994,83,-1,1218.31501831502,1.6007326007326,33.2610051366501
1743371328014,17:48:48.014,83,-1,1205.86080586081,1.59487179487179,33.2610051366501
1743371328033,17:48:48.033,83,-1,1197.8021978022,1.59047619047619,33.2610051366501
1743371328053,17:48:48.053,83,-1,1195.6043956044,1.58608058608059,33.2610051366501
1743371328072,17:48:48.072,83,-1,1183.88278388278,1.58168498168498,33.2610051366501
1743371328092,17:48:48.092,83,-1,1160.43956043956,1.57728937728938,33.2610051366501
1743371328111,17:48:48.111,83,-1,1126.00732600733,1.57582417582418,33.2610051366501
1743371328131,17:48:48.131,83,-1,1105.49450549451,1.57289377289377,33.2610051366501
1743371328150,17:48:48.150,83,-1,1080.58608058608,1.56996336996337,33.2610051366501
1743371328170,17:48:48.170,83,-1,1054.94505494505,1.56849816849817,33.2610051366501
1743371328189,17:48:48.189,83,-1,1035.89743589744,1.56263736263736,33.2610051366501
1743371328209,17:48:48.209,83,-1,1027.10622710623,1.56263736263736,33.2610051366501
1743371328228,17:48:48.228,83,-1,1032.23443223443,1.56263736263736,33.291026217863
1743371328248,17:48:48.248,83,-1,1026.37362637363,1.55970695970696,33.291026217863
1743371328267,17:48:48.267,83,-1,1030.76923076923,1.55677655677656,33.291026217863
1743371328287,17:48:48.287,83,-1,1026.37362637363,1.55384615384615,33.291026217863
1743371328306,17:48:48.306,83,-1,1012.45421245421,1.55384615384615,33.291026217863
1743371328326,17:48:48.326,83,-1,1002.9304029304,1.54065934065934,33.291026217863
1743371328345,17:48:48.345,83,-1,976.556776556777,1.53040293040293,33.291026217863
1743371328365,17:48:48.365,83,-1,949.450549450549,1.52747252747253,33.291026217863
1743371328384,17:48:48.384,83,-1,931.135531135531,1.52600732600733,33.291026217863
1743371328404,17:48:48.404,83,-1,927.472527472527,1.52454212454212,33.291026217863
1743371328423,17:48:48.423,83,-1,922.344322344322,1.52307692307692,33.291026217863
1743371328443,17:48:48.443,83,-1,939.194139194139,1.52161172161172,33.291026217863
1743371328462,17:48:48.462,83,-1,956.043956043956,1.52161172161172,33.291026217863
1743371328482,17:48:48.482,83,-1,980.952380952381,1.52014652014652,33.291026217863
1743371328501,17:48:48.501,83,-1,1029.30402930403,1.51868131868132,33.291026217863
1743371328521,17:48:48.521,83,-1,1109.89010989011,1.51868131868132,33.291026217863
1743371328540,17:48:48.540,83,-1,1216.11721611722,1.51868131868132,33.291026217863
1743371328560,17:48:48.560,83,-1,1335.53113553114,1.52014652014652,33.291026217863
1743371328579,17:48:48.579,83,-1,1437.36263736264,1.52454212454212,33.291026217863
1743371328599,17:48:48.599,83,-1,1523.07692307692,1.52600732600733,33.291026217863
1743371328618,17:48:48.618,83,-1,1581.68498168498,1.52454212454212,33.291026217863
1743371328638,17:48:48.638,83,-1,1629.30402930403,1.52454212454212,33.291026217863
1743371328657,17:48:48.657,83,-1,1664.46886446886,1.52454212454212,33.291026217863
1743371328677,17:48:48.677,88,-1,1677.65567765568,1.52307692307692,33.291026217863
1743371328696,17:48:48.696,88,-1,1679.85347985348,1.52014652014652,33.291026217863
1743371328716,17:48:48.716,88,-1,1676.92307692308,1.51428571428571,33.291026217863
1743371328735,17:48:48.735,88,-1,1654.21245421245,1.51135531135531,33.291026217863
1743371328755,17:48:48.755,88,-1,1619.78021978022,1.50695970695971,33.291026217863
1743371328774,17:48:48.774,88,-1,1568.49816849817,1.50549450549451,33.291026217863
1743371328794,17:48:48.794,88,-1,1528.20512820513,1.5025641025641,33.291026217863
1743371328813,17:48:48.813,88,-1,1506.95970695971,1.5010989010989,33.291026217863
1743371328833,17:48:48.833,88,-1,1485.71428571429,1.4996336996337,33.291026217863
1743371328852,17:48:48.852,88,-1,1463.73626373626,1.4981684981685,33.291026217863
1743371328872,17:48:48.872,88,-1,1454.94505494505,1.49523809523809,33.291026217863
1743371328891,17:48:48.891,88,-1,1449.81684981685,1.49523809523809,33.291026217863
1743371328911,17:48:48.911,88,-1,1424.17582417582,1.49230769230769,33.291026217863
1743371328930,17:48:48.930,88,-1,1391.20879120879,1.49230769230769,33.291026217863
1743371328950,17:48:48.950,88,-1,1367.76556776557,1.49084249084249,33.291026217863
1743371328969,17:48:48.969,88,-1,1345.78754578755,1.48791208791209,33.291026217863
1743371328989,17:48:48.989,88,-1,1313.55311355311,1.48644688644689,33.291026217863
1743371329008,17:48:49.008,88,-1,1291.57509157509,1.48498168498168,33.291026217863
1743371329028,17:48:49.028,88,-1,1271.06227106227,1.48351648351648,33.291026217863
1743371329047,17:48:49.047,88,-1,1267.39926739927,1.48205128205128,33.291026217863
1743371329067,17:48:49.067,88,-1,1253.47985347985,1.48058608058608,33.291026217863
1743371329086,17:48:49.086,88,-1,1237.36263736264,1.47912087912088,33.291026217863
1743371329106,17:48:49.106,88,-1,1221.24542124542,1.47472527472527,33.291026217863
1743371329125,17:48:49.125,88,-1,1205.86080586081,1.47326007326007,33.291026217863
1743371329145,17:48:49.145,88,-1,1196.336996337,1.47032967032967,33.291026217863
1743371329164,17:48:49.164,88,-1,1191.20879120879,1.46886446886447,33.291026217863
1743371329184,17:48:49.184,88,-1,1183.88278388278,1.46593406593407,33.291026217863
1743371329203,17:48:49.203,88,-1,1175.09157509158,1.46446886446886,33.291026217863
1743371329223,17:48:49.223,88,-1,1168.49816849817,1.46300366300366,33.3010331983678
1743371329242,17:48:49.242,88,-1,1160.43956043956,1.46153846153846,33.3010331983678
1743371329262,17:48:49.262,88,-1,1138.46153846154,1.45860805860806,33.3010331983678
1743371329281,17:48:49.281,88,-1,1120.14652014652,1.45714285714286,33.3010331983678
1743371329301,17:48:49.301,88,-1,1113.55311355311,1.45567765567766,33.3010331983678
1743371329320,17:48:49.320,88,-1,1116.48351648352,1.45274725274725,33.3010331983678
1743371329340,17:48:49.340,88,-1,1104.0293040293,1.45128205128205,33.3010331983678
1743371329359,17:48:49.359,93,-1,1101.0989010989,1.44981684981685,33.3010331983678
1743371329379,17:48:49.379,93,-1,1104.7619047619,1.44688644688645,33.3010331983678
1743371329398,17:48:49.398,93,-1,1105.49450549451,1.44542124542125,33.3010331983678
1743371329418,17:48:49.418,93,-1,1112.08791208791,1.44249084249084,33.3010331983678
1743371329437,17:48:49.437,93,-1,1179.48717948718,1.44102564102564,33.3010331983678
1743371329457,17:48:49.457,93,-1,1306.22710622711,1.43956043956044,33.3010331983678
1743371329476,17:48:49.476,93,-1,1460.07326007326,1.43809523809524,33.3010331983678
1743371329496,17:48:49.496,93,-1,1604.3956043956,1.43663003663004,33.3010331983678
1743371329515,17:48:49.515,93,-1,1731.86813186813,1.43369963369963,33.3010331983678
1743371329535,17:48:49.535,93,-1,1835.89743589744,1.43223443223443,33.3010331983678
1743371329554,17:48:49.554,93,-1,1901.8315018315,1.43076923076923,33.3010331983678
1743371329574,17:48:49.574,93,-1,1939.92673992674,1.42783882783883,33.3010331983678
1743371329593,17:48:49.593,93,-1,1975.82417582418,1.42637362637363,33.3010331983678
1743371329613,17:48:49.613,93,-1,2005.86080586081,1.42490842490842,33.3010331983678
1743371329632,17:48:49.632,93,-1,2022.71062271062,1.42197802197802,33.3010331983678
1743371329652,17:48:49.652,93,-1,2016.11721611722,1.42051282051282,33.3010331983678
1743371329671,17:48:49.671,93,-1,1978.02197802198,1.41758241758242,33.3010331983678
1743371329691,17:48:49.691,93,-1,1920.87912087912,1.41465201465201,33.3010331983678
1743371329710,17:48:49.710,93,-1,1873.26007326007,1.41172161172161,33.3010331983678
1743371329730,17:48:49.730,93,-1,1822.71062271062,1.41025641025641,33.3010331983678
1743371329749,17:48:49.749,93,-1,1789.01098901099,1.40732600732601,33.3010331983678
1743371329769,17:48:49.769,93,-1,1764.10256410256,1.40586080586081,33.3010331983678
1743371329788,17:48:49.788,93,-1,1726.00732600733,1.4029304029304,33.3010331983678
1743371329808,17:48:49.808,93,-1,1696.7032967033,1.4,33.3010331983678
1743371329827,17:48:49.827,93,-1,1688.64468864469,1.3970695970696,33.3010331983678
1743371329847,17:48:49.847,93,-1,1682.05128205128,1.3956043956044,33.3010331983678
1743371329866,17:48:49.866,93,-1,1658.60805860806,1.39267399267399,33.3010331983678
1743371329886,17:48:49.886,93,-1,1623.44322344322,1.39120879120879,33.3010331983678
1743371329905,17:48:49.905,93,-1,1590.47619047619,1.38681318681319,33.3010331983678
1743371329925,17:48:49.925,93,-1,1542.85714285714,1.38681318681319,33.3010331983678
1743371329944,17:48:49.944,93,-1,1501.8315018315,1.38681318681319,33.3010331983678
1743371329964,17:48:49.964,93,-1,1473.26007326007,1.38681318681319,33.3010331983678
1743371329983,17:48:49.983,93,-1,1457.14285714286,1.38681318681319,33.3010331983678
1743371330003,17:48:50.003,93,-1,1421.97802197802,1.36374736374736,33.3010331983678
1743371330022,17:48:50.022,93,-1,1375.82417582418,1.35975135975136,33.3010331983678
1743371330042,17:48:50.042,93,-1,1341.39194139194,1.35575535575536,33.3010331983678
1743371330061,17:48:50.061,93,-1,1326.73992673993,1.35131535131535,33.3010331983678
1743371330081,17:48:50.081,93,-1,1315.75091575092,1.34731934731935,33.3010331983678
1743371330100,17:48:50.100,93,-1,1306.22710622711,1.34332334332334,33.3010331983678
1743371330120,17:48:50.120,93,-1,1301.8315018315,1.33888333888334,33.3010331983678
1743371330139,17:48:50.139,88,-1,1293.04029304029,1.33533133533134,33.3010331983678
1743371330159,17:48:50.159,88,-1,1279.12087912088,1.33222333222333,33.3010331983678
1743371330178,17:48:50.178,88,-1,1254.21245421245,1.32955932955933,33.3010331983678
1743371330198,17:48:50.198,88,-1,1241.02564102564,1.32733932733933,33.3010331983678
1743371330217,17:48:50.217,88,-1,1232.96703296703,1.32645132645133,33.3210470895283
1743371330237,17:48:50.237,88,-1,1229.30402930403,1.32467532467532,33.3210470895283
1743371330256,17:48:50.256,88,-1,1238.09523809524,1.32334332334332,33.3210470895283
1743371330276,17:48:50.276,88,-1,1233.69963369963,1.32201132201132,33.3210470895283
1743371330295,17:48:50.295,88,-1,1224.90842490842,1.32067932067932,33.3210470895283
1743371330315,17:48:50.315,88,-1,1215.38461538462,1.31934731934732,33.3210470895283
1743371330334,17:48:50.334,88,-1,1202.9304029304,1.31845931845932,33.3210470895283
1743371330354,17:48:50.354,88,-1,1191.94139194139,1.31668331668332,33.3210470895283
1743371330373,17:48:50.373,88,-1,1227.10622710623,1.31535131535132,33.3210470895283
1743371330393,17:48:50.393,88,-1,1326.73992673993,1.31401931401931,33.3210470895283
1743371330412,17:48:50.412,88,-1,1477.65567765568,1.31357531357531,33.3210470895283
1743371330432,17:48:50.432,88,-1,1660.07326007326,1.31224331224331,33.3210470895283
1743371330451,17:48:50.451,88,-1,1832.96703296703,1.31091131091131,33.3210470895283
1743371330471,17:48:50.471,88,-1,1977.28937728938,1.30957930957931,33.3210470895283
1743371330490,17:48:50.490,88,-1,2082.05128205128,1.30869130869131,33.3210470895283
1743371330510,17:48:50.510,88,-1,2147.98534798535,1.30780330780331,33.3210470895283
1743371330529,17:48:50.529,88,-1,2175.09157509158,1.30691530691531,33.3210470895283
1743371330549,17:48:50.549,88,-1,2175.09157509158,1.30602730602731,33.3210470895283
1743371330568,17:48:50.568,88,-1,2174.35897435897,1.30513930513931,33.3210470895283
1743371330588,17:48:50.588,88,-1,2169.96336996337,1.3033633033633,33.3210470895283
1743371330607,17:48:50.607,88,-1,2143.58974358974,1.3024753024753,33.3210470895283
1743371330627,17:48:50.627,88,-1,2071.06227106227,1.3006993006993,33.3210470895283
1743371330646,17:48:50.646,88,-1,1988.27838827839,1.2998112998113,33.3210470895283
1743371330666,17:48:50.666,88,-1,1916.48351648352,1.2980352980353,33.3210470895283
1743371330685,17:48:50.685,88,-1,1858.60805860806,1.2967032967033,33.3210470895283
1743371330705,17:48:50.705,88,-1,1815.38461538462,1.2953712953713,33.3210470895283
1743371330724,17:48:50.724,88,-1,1778.75457875458,1.29448329448329,33.3210470895283
1743371330744,17:48:50.744,88,-1,1747.25274725275,1.29315129315129,33.3210470895283
1743371330763,17:48:50.763,88,-1,1723.07692307692,1.29226329226329,33.3210470895283
1743371330783,17:48:50.783,88,-1,1699.6336996337,1.29093129093129,33.3210470895283
1743371330802,17:48:50.802,88,-1,1674.72527472527,1.28959928959929,33.3210470895283
1743371330822,17:48:50.822,88,-1,1640.29304029304,1.28826728826729,33.3210470895283
1743371330841,17:48:50.841,88,-1,1619.78021978022,1.28649128649129,33.3210470895283
1743371330861,17:48:50.861,88,-1,1606.59340659341,1.28560328560329,33.3210470895283
1743371330880,17:48:50.880,88,-1,1581.68498168498,1.28471528471528,33.3210470895283
1743371330900,17:48:50.900,88,-1,1544.32234432234,1.28382728382728,33.3210470895283
1743371330919,17:48:50.919,88,-1,1492.30769230769,1.28249528249528,33.3210470895283
1743371330939,17:48:50.939,77,-1,1441.75824175824,1.28116328116328,33.3210470895283
1743371330958,17:48:50.958,77,-1,1401.4652014652,1.28027528027528,33.3210470895283
1743371330978,17:48:50.978,77,-1,1356.77655677656,1.27894327894328,33.3210470895283
1743371330997,17:48:50.997,77,-1,1321.61172161172,1.27761127761128,33.3210470895283
1743371331017,17:48:51.017,77,-1,1289.37728937729,1.27672327672328,33.3210470895283
1743371331036,17:48:51.036,77,-1,1258.60805860806,1.27494727494727,33.3210470895283
1743371331056,17:48:51.056,77,-1,1238.82783882784,1.27405927405927,33.3210470895283
1743371331075,17:48:51.075,77,-1,1224.17582417582,1.27317127317127,33.3210470895283
1743371331095,17:48:51.095,77,-1,1210.25641025641,1.27228327228327,33.3210470895283
1743371331114,17:48:51.114,77,-1,1197.0695970696,1.27050727050727,33.3210470895283
1743371331134,17:48:51.134,77,-1,1175.82417582418,1.26961926961927,33.3210470895283
1743371331153,17:48:51.153,77,-1,1173.62637362637,1.26873126873127,33.3210470895283
1743371331173,17:48:51.173,77,-1,1178.75457875458,1.26828726828727,33.3210470895283
1743371331192,17:48:51.192,77,-1,1180.21978021978,1.26695526695527,33.3210470895283
1743371331212,17:48:51.212,77,-1,1167.03296703297,1.26651126651127,33.3460643225117
1743371331231,17:48:51.231,77,-1,1148.71794871795,1.26517926517927,33.3460643225117
1743371331251,17:48:51.251,77,-1,1138.46153846154,1.26429126429126,33.3460643225117
1743371331270,17:48:51.270,77,-1,1126.00732600733,1.26340326340326,33.3460643225117
1743371331290,17:48:51.290,77,-1,1145.78754578755,1.26295926295926,33.3460643225117
1743371331309,17:48:51.309,77,-1,1229.30402930403,1.26162726162726,33.3460643225117
1743371331329,17:48:51.329,77,-1,1386.81318681319,1.26073926073926,33.3460643225117
1743371331348,17:48:51.348,77,-1,1578.75457875458,1.25985125985126,33.3460643225117
1743371331368,17:48:51.368,77,-1,1770.69597069597,1.25940725940726,33.3460643225117
1743371331387,17:48:51.387,77,-1,1943.58974358974,1.25807525807526,33.3460643225117
1743371331407,17:48:51.407,77,-1,2067.39926739927,1.25718725718726,33.3460643225117
1743371331426,17:48:51.426,77,-1,2127.47252747253,1.25629925629926,33.3460643225117
1743371331446,17:48:51.446,77,-1,2140.65934065934,1.25541125541126,33.3460643225117
1743371331465,17:48:51.465,77,-1,2129.67032967033,1.25452325452325,33.3460643225117
1743371331485,17:48:51.485,77,-1,2106.22710622711,1.25363525363525,33.3460643225117
1743371331504,17:48:51.504,77,-1,2071.79487179487,1.25185925185925,33.3460643225117
1743371331524,17:48:51.524,77,-1,2032.23443223443,1.25097125097125,33.3460643225117
1743371331543,17:48:51.543,77,-1,1972.16117216117,1.24875124875125,33.3460643225117
1743371331563,17:48:51.563,77,-1,1895.2380952381,1.24741924741925,33.3460643225117
1743371331582,17:48:51.582,77,-1,1814.65201465201,1.24653124653125,33.3460643225117
1743371331602,17:48:51.602,77,-1,1736.99633699634,1.24519924519925,33.3460643225117
1743371331621,17:48:51.621,77,-1,1679.85347985348,1.24431124431124,33.3460643225117
1743371331641,17:48:51.641,77,-1,1640.29304029304,1.24297924297924,33.3460643225117
1743371331660,17:48:51.660,77,-1,1610.25641025641,1.24253524253524,33.3460643225117
1743371331680,17:48:51.680,77,-1,1581.68498168498,1.24164724164724,33.3460643225117
1743371331699,17:48:51.699,77,-1,1553.84615384615,1.24075924075924,33.3460643225117
1743371331719,17:48:51.719,77,-1,1536.99633699634,1.23987123987124,33.3460643225117
1743371331738,17:48:51.738,75,-1,1514.28571428571,1.23942723942724,33.3460643225117
1743371331758,17:48:51.758,75,-1,1478.38827838828,1.23809523809524,33.3460643225117
1743371331777,17:48:51.777,75,-1,1461.53846153846,1.23765123765124,33.3460643225117
1743371331797,17:48:51.797,75,-1,1450.54945054945,1.23676323676324,33.3460643225117
1743371331816,17:48:51.816,75,-1,1423.44322344322,1.23631923631924,33.3460643225117
1743371331836,17:48:51.836,75,-1,1380.95238095238,1.23498723498723,33.3460643225117
1743371331855,17:48:51.855,75,-1,1333.33333333333,1.23409923409923,33.3460643225117
1743371331875,17:48:51.875,75,-1,1289.37728937729,1.23276723276723,33.3460643225117
1743371331894,17:48:51.894,75,-1,1263.73626373626,1.23232323232323,33.3460643225117
1743371331914,17:48:51.914,75,-1,1243.95604395604,1.23054723054723,33.3460643225117
1743371331933,17:48:51.933,75,-1,1210.25641025641,1.23010323010323,33.3460643225117
1743371331953,17:48:51.953,75,-1,1181.68498168498,1.22877122877123,33.3460643225117
1743371331972,17:48:51.972,75,-1,1158.97435897436,1.22788322788323,33.3460643225117
1743371331992,17:48:51.992,75,-1,1149.45054945055,1.22655122655123,33.3460643225117
1743371332011,17:48:52.011,75,-1,1151.64835164835,1.22610722610723,33.3460643225117
1743371332031,17:48:52.031,75,-1,1141.39194139194,1.22477522477522,33.3460643225117
1743371332050,17:48:52.050,75,-1,1139.19413919414,1.22433122433122,33.3460643225117
1743371332070,17:48:52.070,75,-1,1143.58974358974,1.22344322344322,33.3460643225117
1743371332089,17:48:52.089,75,-1,1141.39194139194,1.22299922299922,33.3460643225117
1743371332109,17:48:52.109,75,-1,1130.40293040293,1.22255522255522,33.3460643225117
1743371332128,17:48:52.128,75,-1,1109.15750915751,1.22211122211122,33.3460643225117
1743371332148,17:48:52.148,75,-1,1093.04029304029,1.22166722166722,33.3460643225117
1743371332167,17:48:52.167,75,-1,1075.45787545788,1.22077922077922,33.3460643225117
1743371332187,17:48:52.187,75,-1,1068.13186813187,1.21989121989122,33.3460643225117
1743371332206,17:48:52.206,75,-1,1089.37728937729,1.21900321900322,33.3560711749597
1743371332226,17:48:52.226,75,-1,1150.91575091575,1.21855921855922,33.3560711749597
1743371332245,17:48:52.245,75,-1,1277.65567765568,1.21767121767122,33.3560711749597
1743371332265,17:48:52.265,75,-1,1440.29304029304,1.21678321678322,33.3560711749597
1743371332284,17:48:52.284,75,-1,1621.24542124542,1.21633921633922,33.3560711749597
1743371332304,17:48:52.304,75,-1,1786.81318681319,1.21589521589522,33.3560711749597
1743371332323,17:48:52.323,75,-1,1896.7032967033,1.21456321456321,33.3560711749597
1743371332343,17:48:52.343,75,-1,1964.83516483516,1.21456321456321,33.3560711749597
1743371332362,17:48:52.362,75,-1,1983.15018315018,1.21367521367521,33.3560711749597
1743371332382,17:48:52.382,75,-1,1978.02197802198,1.21323121323121,33.3560711749597
1743371332401,17:48:52.401,75,-1,1951.64835164835,1.21278721278721,33.3560711749597
1743371332421,17:48:52.421,75,-1,1909.89010989011,1.21189921189921,33.3560711749597
1743371332440,17:48:52.440,75,-1,1860.07326007326,1.21145521145521,33.3560711749597
1743371332460,17:48:52.460,75,-1,1802.1978021978,1.21056721056721,33.3560711749597
1743371332479,17:48:52.479,75,-1,1734.79853479853,1.20967920967921,33.3560711749597
1743371332499,17:48:52.499,75,-1,1673.26007326007,1.20923520923521,33.3560711749597
1743371332518,17:48:52.518,75,-1,1612.45421245421,1.20834720834721,33.3560711749597
1743371332538,17:48:52.538,75,-1,1560.43956043956,1.20745920745921,33.3560711749597
1743371332557,17:48:52.557,75,-1,1528.93772893773,1.20612720612721,33.3560711749597
1743371332577,17:48:52.577,75,-1,1512.82051282051,1.20568320568321,33.3560711749597
1743371332596,17:48:52.596,75,-1,1489.37728937729,1.2047952047952,33.3560711749597
1743371332616,17:48:52.616,75,-1,1458.60805860806,1.2047952047952,33.3560711749597
1743371332635,17:48:52.635,75,-1,1435.89743589744,1.2039072039072,33.3560711749597
1743371332655,17:48:52.655,75,-1,1409.52380952381,1.2034632034632,33.3560711749597
1743371332674,17:48:52.674,75,-1,1380.21978021978,1.2030192030192,33.3560711749597
1743371332694,17:48:52.694,75,-1,1341.39194139194,1.2025752025752,33.3560711749597
1743371332713,17:48:52.713,75,-1,1308.42490842491,1.2025752025752,33.3560711749597
1743371332733,17:48:52.733,75,-1,1290.10989010989,1.2021312021312,33.3560711749597
1743371332752,17:48:52.752,75,-1,1266.66666666667,1.2012432012432,33.3560711749597
1743371332772,17:48:52.772,75,-1,1238.09523809524,1.2007992007992,33.3560711749597
1743371332791,17:48:52.791,75,-1,1209.52380952381,1.1999111999112,33.3560711749597
1743371332811,17:48:52.811,75,-1,1180.95238095238,1.1994671994672,33.3560711749597
1743371332830,17:48:52.830,75,-1,1174.35897435897,1.1981351981352,33.3560711749597
1743371332850,17:48:52.850,75,-1,1172.89377289377,1.1963591963592,33.3560711749597
1743371332869,17:48:52.869,75,-1,1163.36996336996,1.19458319458319,33.3560711749597
1743371332889,17:48:52.889,75,-1,1154.57875457875,1.19413919413919,33.3560711749597
1743371332908,17:48:52.908,75,-1,1141.39194139194,1.19280719280719,33.3560711749597
1743371332928,17:48:52.928,75,-1,1115.01831501831,1.19147519147519,33.3560711749597
1743371332947,17:48:52.947,75,-1,1094.50549450549,1.19014319014319,33.3560711749597
1743371332967,17:48:52.967,75,-1,1076.92307692308,1.18969918969919,33.3560711749597
1743371332986,17:48:52.986,75,-1,1072.52747252747,1.18836718836719,33.3560711749597
1743371333006,17:48:53.006,75,-1,1073.26007326007,1.18792318792319,33.3560711749597
1743371333025,17:48:53.025,75,-1,1068.13186813187,1.18703518703519,33.3560711749597
1743371333045,17:48:53.045,75,-1,1060.07326007326,1.18614718614719,33.3560711749597
1743371333064,17:48:53.064,75,-1,1046.88644688645,1.18570318570319,33.3560711749597
1743371333084,17:48:53.084,75,-1,1041.02564102564,1.18437118437118,33.3560711749597
1743371333103,17:48:53.103,75,-1,1066.66666666667,1.18348318348318,33.3560711749597
1743371333123,17:48:53.123,75,-1,1150.91575091575,1.18303918303918,33.3560711749597
1743371333142,17:48:53.142,75,-1,1289.37728937729,1.18215118215118,33.3560711749597
1743371333162,17:48:53.162,75,-1,1443.95604395604,1.18215118215118,33.3560711749597
1743371333181,17:48:53.181,75,-1,1568.49816849817,1.18126318126318,33.3560711749597
1743371333201,17:48:53.201,75,-1,1649.08424908425,1.18126318126318,33.3710814099759
1743371333220,17:48:53.220,75,-1,1702.5641025641,1.17993117993118,33.3710814099759
1743371333240,17:48:53.240,75,-1,1728.93772893773,1.17948717948718,33.3710814099759
1743371333259,17:48:53.259,75,-1,1729.67032967033,1.17904317904318,33.3710814099759
1743371333279,17:48:53.279,75,-1,1720.87912087912,1.17815517815518,33.3710814099759
1743371333298,17:48:53.298,75,-1,1701.8315018315,1.17815517815518,33.3710814099759
1743371333318,17:48:53.318,75,-1,1666.66666666667,1.17637917637918,33.3710814099759
1743371333337,17:48:53.337,75,-1,1627.10622710623,1.17593517593518,33.3710814099759
1743371333357,17:48:53.357,75,-1,1575.09157509157,1.17460317460317,33.3710814099759
1743371333376,17:48:53.376,75,-1,1523.80952380952,1.17415917415917,33.3710814099759
1743371333396,17:48:53.396,75,-1,1477.65567765568,1.17282717282717,33.3710814099759
1743371333415,17:48:53.415,75,-1,1445.42124542125,1.17149517149517,33.3710814099759
1743371333435,17:48:53.435,75,-1,1435.89743589744,1.17105117105117,33.3710814099759
1743371333454,17:48:53.454,75,-1,1407.32600732601,1.16971916971917,33.3710814099759
1743371333474,17:48:53.474,75,-1,1397.8021978022,1.16971916971917,33.3710814099759
1743371333493,17:48:53.493,75,-1,1396.336996337,1.16838716838717,33.3710814099759
1743371333513,17:48:53.513,75,-1,1387.54578754579,1.16838716838717,33.3710814099759
1743371333532,17:48:53.532,70,-1,1357.50915750916,1.16749916749917,33.3710814099759
1743371333552,17:48:53.552,70,-1,1321.61172161172,1.16705516705517,33.3710814099759
1743371333571,17:48:53.571,70,-1,1289.37728937729,1.16572316572317,33.3710814099759
1743371333591,17:48:53.591,70,-1,1265.93406593407,1.16527916527917,33.3710814099759
1743371333610,17:48:53.610,70,-1,1235.16483516484,1.16394716394716,33.3710814099759
1743371333630,17:48:53.630,70,-1,1220.51282051282,1.16350316350316,33.3710814099759
1743371333649,17:48:53.649,70,-1,1216.84981684982,1.16305916305916,33.3710814099759
1743371333669,17:48:53.669,70,-1,1213.91941391941,1.16172716172716,33.3710814099759
1743371333688,17:48:53.688,70,-1,1202.9304029304,1.16128316128316,33.3710814099759
1743371333708,17:48:53.708,70,-1,1173.62637362637,1.16083916083916,33.3710814099759
1743371333727,17:48:53.727,70,-1,1152.38095238095,1.15995115995116,33.3710814099759
1743371333747,17:48:53.747,70,-1,1135.53113553114,1.15906315906316,33.3710814099759
1743371333766,17:48:53.766,70,-1,1138.46153846154,1.15861915861916,33.3710814099759
1743371333786,17:48:53.786,70,-1,1123.80952380952,1.15773115773116,33.3710814099759
1743371333805,17:48:53.805,70,-1,1104.0293040293,1.15684315684316,33.3710814099759
1743371333825,17:48:53.825,70,-1,1086.44688644689,1.15595515595516,33.3710814099759
1743371333844,17:48:53.844,70,-1,1085.71428571429,1.15506715506716,33.3710814099759
1743371333864,17:48:53.864,70,-1,1083.51648351648,1.15417915417915,33.3710814099759
1743371333883,17:48:53.883,70,-1,1081.31868131868,1.15329115329115,33.3710814099759
1743371333903,17:48:53.903,70,-1,1097.4358974359,1.15240315240315,33.3710814099759
1743371333922,17:48:53.922,70,-1,1164.10256410256,1.15195915195915,33.3710814099759
1743371333942,17:48:53.942,70,-1,1255.67765567766,1.15107115107115,33.3710814099759
1743371333961,17:48:53.961,70,-1,1380.21978021978,1.15018315018315,33.3710814099759
1743371333981,17:48:53.981,70,-1,1509.89010989011,1.14885114885115,33.3710814099759
1743371334000,17:48:54.000,70,-1,1600,1.14885114885115,33.3710814099759
1743371334020,17:48:54.020,70,-1,1660.80586080586,1.14796314796315,33.3710814099759
1743371334039,17:48:54.039,70,-1,1688.64468864469,1.14663114663115,33.3710814099759
1743371334059,17:48:54.059,70,-1,1691.57509157509,1.14618714618715,33.3710814099759
1743371334078,17:48:54.078,70,-1,1685.71428571429,1.14529914529915,33.3710814099759
1743371334098,17:48:54.098,70,-1,1682.05128205128,1.14441114441114,33.3710814099759
1743371334117,17:48:54.117,70,-1,1649.81684981685,1.14352314352314,33.3710814099759
1743371334137,17:48:54.137,70,-1,1604.3956043956,1.14263514263514,33.3710814099759
1743371334156,17:48:54.156,70,-1,1562.63736263736,1.14130314130314,33.3710814099759
1743371334176,17:48:54.176,70,-1,1515.75091575092,1.14085914085914,33.3710814099759
1743371334195,17:48:54.195,70,-1,1463.73626373626,1.13997113997114,33.3860915926052
1743371334215,17:48:54.215,70,-1,1413.91941391941,1.13908313908314,33.3860915926052
1743371334234,17:48:54.234,70,-1,1388.27838827839,1.13819513819514,33.3860915926052
1743371334254,17:48:54.254,70,-1,1369.23076923077,1.13775113775114,33.3860915926052
1743371334273,17:48:54.273,70,-1,1356.77655677656,1.13686313686314,33.3860915926052
1743371334293,17:48:54.293,70,-1,1346.52014652015,1.13597513597514,33.3860915926052
1743371334312,17:48:54.312,70,-1,1340.65934065934,1.13464313464313,33.3860915926052
1743371334332,17:48:54.332,70,-1,1326.73992673993,1.13286713286713,33.3860915926052
1743371334351,17:48:54.351,70,-1,1299.6336996337,1.13242313242313,33.3860915926052
1743371334371,17:48:54.371,70,-1,1265.93406593407,1.13109113109113,33.3860915926052
1743371334390,17:48:54.390,70,-1,1237.36263736264,1.13020313020313,33.3860915926052
1743371334410,17:48:54.410,70,-1,1235.89743589744,1.12931512931513,33.3860915926052
1743371334429,17:48:54.429,70,-1,1230.03663003663,1.12798312798313,33.3860915926052
1743371334449,17:48:54.449,70,-1,1194.87179487179,1.12798312798313,33.3860915926052
1743371334468,17:48:54.468,64,-1,1167.76556776557,1.12665112665113,33.3860915926052
1743371334488,17:48:54.488,64,-1,1173.62637362637,1.12576312576313,33.3860915926052
1743371334507,17:48:54.507,64,-1,1179.48717948718,1.12443112443112,33.3860915926052
1743371334527,17:48:54.527,64,-1,1176.55677655678,1.12398712398712,33.3860915926052
1743371334546,17:48:54.546,64,-1,1165.56776556777,1.12309912309912,33.3860915926052
1743371334566,17:48:54.566,64,-1,1143.58974358974,1.12176712176712,33.3860915926052
1743371334585,17:48:54.585,64,-1,1136.99633699634,1.12132312132312,33.3860915926052
1743371334605,17:48:54.605,64,-1,1130.40293040293,1.12043512043512,33.3860915926052
1743371334624,17:48:54.624,64,-1,1118.68131868132,1.11999111999112,33.3860915926052
1743371334644,17:48:54.644,64,-1,1098.1684981685,1.11865911865912,33.3860915926052
1743371334663,17:48:54.663,64,-1,1084.24908424908,1.11777111777112,33.3860915926052
1743371334683,17:48:54.683,64,-1,1098.9010989011,1.11688311688312,33.3860915926052
1743371334702,17:48:54.702,64,-1,1141.39194139194,1.11555111555112,33.3860915926052
1743371334722,17:48:54.722,64,-1,1211.72161172161,1.11466311466311,33.3860915926052
1743371334741,17:48:54.741,64,-1,1295.9706959707,1.11377511377511,33.3860915926052
1743371334761,17:48:54.761,64,-1,1381.68498168498,1.11288711288711,33.3860915926052
1743371334780,17:48:54.780,64,-1,1452.01465201465,1.11199911199911,33.3860915926052
1743371334800,17:48:54.800,64,-1,1503.2967032967,1.11155511155511,33.3860915926052
1743371334819,17:48:54.819,64,-1,1555.31135531136,1.11022311022311,33.3860915926052
1743371334839,17:48:54.839,64,-1,1586.08058608059,1.10977910977911,33.3860915926052
1743371334858,17:48:54.858,64,-1,1586.08058608059,1.10844710844711,33.3860915926052
1743371334878,17:48:54.878,64,-1,1586.81318681319,1.10844710844711,33.3860915926052
1743371334897,17:48:54.897,64,-1,1586.08058608059,1.10711510711511,33.3860915926052
1743371334917,17:48:54.917,64,-1,1563.36996336996,1.10622710622711,33.3860915926052
1743371334936,17:48:54.936,64,-1,1539.92673992674,1.10578310578311,33.3860915926052
1743371334956,17:48:54.956,64,-1,1510.62271062271,1.1048951048951,33.3860915926052
1743371334975,17:48:54.975,64,-1,1469.59706959707,1.1044511044511,33.3860915926052
1743371334995,17:48:54.995,64,-1,1439.56043956044,1.1035631035631,33.3860915926052
1743371335014,17:48:55.014,64,-1,1409.52380952381,1.1026751026751,33.3860915926052
1743371335034,17:48:55.034,64,-1,1384.61538461538,1.1008991008991,33.3860915926052
1743371335053,17:48:55.053,64,-1,1362.63736263736,1.1000111000111,33.3860915926052
1743371335073,17:48:55.073,64,-1,1349.45054945055,1.0982350982351,33.3860915926052
1743371335092,17:48:55.092,64,-1,1340.65934065934,1.0969030969031,33.3860915926052
1743371335112,17:48:55.112,64,-1,1328.20512820513,1.09468309468309,33.3860915926052
1743371335131,17:48:55.131,64,-1,1326.00732600733,1.09290709290709,33.3860915926052
1743371335151,17:48:55.151,64,-1,1327.47252747253,1.08979908979909,33.3860915926052
1743371335170,17:48:55.170,64,-1,1311.35531135531,1.08846708846709,33.3860915926052
1743371335190,17:48:55.190,64,-1,1283.51648351648,1.08491508491508,33.4061050879536
1743371335209,17:48:55.209,64,-1,1259.34065934066,1.08269508269508,33.4061050879536
1743371335229,17:48:55.229,64,-1,1245.42124542125,1.08136308136308,33.4061050879536
1743371335248,17:48:55.248,64,-1,1230.76923076923,1.08003108003108,33.4061050879536
1743371335268,17:48:55.268,64,-1,1211.72161172161,1.07869907869908,33.4061050879536
1743371335287,17:48:55.287,64,-1,1184.61538461538,1.07647907647908,33.4061050879536
1743371335307,17:48:55.307,64,-1,1153.84615384615,1.07559107559108,33.4061050879536
1743371335326,17:48:55.326,64,-1,1143.58974358974,1.07381507381507,33.4061050879536
1743371335346,17:48:55.346,64,-1,1139.92673992674,1.07248307248307,33.4061050879536
1743371335365,17:48:55.365,64,-1,1134.79853479853,1.07159507159507,33.4061050879536
1743371335385,17:48:55.385,64,-1,1133.33333333333,1.07070707070707,33.4061050879536
1743371335404,17:48:55.404,64,-1,1118.68131868132,1.06937506937507,33.4061050879536
1743371335424,17:48:55.424,64,-1,1116.48351648352,1.06804306804307,33.4061050879536
1743371335443,17:48:55.443,64,-1,1109.89010989011,1.06626706626707,33.4061050879536
1743371335463,17:48:55.463,64,-1,1095.2380952381,1.06404706404706,33.4061050879536
1743371335482,17:48:55.482,64,-1,1090.10989010989,1.06138306138306,33.4061050879536
1743371335502,17:48:55.502,64,-1,1102.5641025641,1.05827505827506,33.4061050879536
1743371335521,17:48:55.521,64,-1,1139.19413919414,1.05516705516705,33.4061050879536
1743371335541,17:48:55.541,64,-1,1206.59340659341,1.05205905205905,33.4061050879536
1743371335560,17:48:55.560,64,-1,1291.57509157509,1.05072705072705,33.4061050879536
1743371335580,17:48:55.580,64,-1,1367.03296703297,1.04850704850705,33.4061050879536
1743371335600,17:48:55.599,64,-1,1418.31501831502,1.04761904761905,33.4061050879536
1743371335619,17:48:55.619,64,-1,1467.39926739927,1.04539904539905,33.4061050879536
1743371335639,17:48:55.638,64,-1,1518.68131868132,1.04451104451104,33.4061050879536
1743371335658,17:48:55.658,64,-1,1544.32234432234,1.04273504273504,33.4061050879536
1743371335678,17:48:55.677,64,-1,1557.50915750916,1.04229104229104,33.4061050879536
1743371335697,17:48:55.697,64,-1,1567.03296703297,1.04095904095904,33.4061050879536
1743371335717,17:48:55.717,64,-1,1580.21978021978,1.04007104007104,33.4061050879536
1743371335736,17:48:55.736,64,-1,1579.48717948718,1.03873903873904,33.4061050879536
1743371335756,17:48:55.756,64,-1,1559.70695970696,1.03696303696304,33.4061050879536
1743371335775,17:48:55.775,64,-1,1526.73992673993,1.03563103563104,33.4061050879536
1743371335795,17:48:55.795,64,-1,1471.79487179487,1.03385503385503,33.4061050879536
1743371335814,17:48:55.814,64,-1,1430.03663003663,1.03252303252303,33.4061050879536
1743371335834,17:48:55.834,64,-1,1393.40659340659,1.02852702852703,33.4061050879536
1743371335853,17:48:55.853,64,-1,1365.56776556777,1.02719502719503,33.4061050879536
1743371335873,17:48:55.873,64,-1,1350.91575091575,1.02453102453102,33.4061050879536
1743371335892,17:48:55.892,64,-1,1342.12454212454,1.02364302364302,33.4061050879536
1743371335912,17:48:55.912,64,-1,1340.65934065934,1.02186702186702,33.4061050879536
1743371335931,17:48:55.931,64,-1,1339.92673992674,1.02097902097902,33.4061050879536
1743371335951,17:48:55.951,64,-1,1339.19413919414,1.01920301920302,33.4061050879536
1743371335970,17:48:55.970,64,-1,1331.13553113553,1.01787101787102,33.4061050879536
1743371335990,17:48:55.990,64,-1,1307.69230769231,1.01609501609502,33.4061050879536
1743371336009,17:48:56.009,64,-1,1283.51648351648,1.01476301476301,33.4061050879536
1743371336029,17:48:56.029,64,-1,1266.66666666667,1.01298701298701,33.4061050879536
1743371336048,17:48:56.048,64,-1,1249.81684981685,1.01165501165501,33.4061050879536
1743371336068,17:48:56.068,64,-1,1227.10622710623,1.01032301032301,33.4061050879536
1743371336087,17:48:56.087,64,-1,1219.78021978022,1.00943500943501,33.4061050879536
1743371336107,17:48:56.107,64,-1,1206.59340659341,1.00765900765901,33.4061050879536
1743371336126,17:48:56.126,64,-1,1189.01098901099,1.00677100677101,33.4061050879536
1743371336146,17:48:56.146,64,-1,1175.09157509158,1.00588300588301,33.4061050879536
1743371336165,17:48:56.165,64,-1,1162.63736263736,1.004551004551,33.4061050879536
1743371336185,17:48:56.185,64,-1,1153.11355311355,1.004107004107,33.4211151483469
1743371336204,17:48:56.204,64,-1,1149.45054945055,1.003219003219,33.4211151483469
1743371336224,17:48:56.224,64,-1,1143.58974358974,1.002331002331,33.4211151483469
1743371336243,17:48:56.243,64,-1,1131.13553113553,1.000555000555,33.4211151483469
1743371336263,17:48:56.263,64,-1,1128.20512820513,0.999666999667,33.4211151483469
1743371336282,17:48:56.282,64,-1,1139.92673992674,0.999222999222999,33.4211151483469
1743371336302,17:48:56.302,65,-1,1147.98534798535,0.998778998778999,33.4211151483469
1743371336321,17:48:56.321,65,-1,1145.05494505494,0.997446997446997,33.4211151483469
1743371336341,17:48:56.341,65,-1,1139.19413919414,0.996114996114996,33.4211151483469
1743371336360,17:48:56.360,65,-1,1136.99633699634,0.994782994782995,33.4211151483469
1743371336380,17:48:56.380,65,-1,1147.25274725275,0.993006993006993,33.4211151483469
1743371336399,17:48:56.399,65,-1,1190.47619047619,0.992562992562993,33.4211151483469
1743371336419,17:48:56.419,65,-1,1268.13186813187,0.98989898989899,33.4211151483469
1743371336438,17:48:56.438,65,-1,1345.78754578755,0.988122988122988,33.4211151483469
1743371336458,17:48:56.458,65,-1,1400,0.986790986790987,33.4211151483469
1743371336477,17:48:56.477,65,-1,1443.95604395604,0.985902985902986,33.4211151483469
1743371336497,17:48:56.497,65,-1,1492.30769230769,0.984126984126984,33.4211151483469
1743371336516,17:48:56.516,65,-1,1534.79853479853,0.983238983238983,33.4211151483469
1743371336536,17:48:56.536,65,-1,1554.57875457875,0.982350982350982,33.4211151483469
1743371336555,17:48:56.555,65,-1,1570.69597069597,0.981906981906982,33.4211151483469
1743371336575,17:48:56.575,65,-1,1594.13919413919,0.98057498057498,33.4211151483469
1743371336594,17:48:56.594,65,-1,1610.98901098901,0.979686979686979,33.4211151483469
1743371336614,17:48:56.614,65,-1,1618.31501831502,0.978354978354978,33.4211151483469
1743371336633,17:48:56.633,65,-1,1602.1978021978,0.977466977466978,33.4211151483469
1743371336653,17:48:56.653,65,-1,1569.96336996337,0.976134976134976,33.4211151483469
1743371336672,17:48:56.672,65,-1,1531.86813186813,0.975246975246975,33.4211151483469
1743371336692,17:48:56.692,65,-1,1490.84249084249,0.973470973470973,33.4211151483469
1743371336711,17:48:56.711,65,-1,1459.34065934066,0.972582972582972,33.4211151483469
1743371336731,17:48:56.731,65,-1,1433.69963369963,0.971250971250971,33.4211151483469
1743371336750,17:48:56.750,65,-1,1418.31501831502,0.970362970362971,33.4211151483469
1743371336770,17:48:56.770,65,-1,1403.663003663,0.969030969030969,33.4211151483469
1743371336789,17:48:56.789,65,-1,1397.8021978022,0.967698967698968,33.4211151483469
1743371336809,17:48:56.809,65,-1,1381.68498168498,0.966366966366967,33.4211151483469
1743371336828,17:48:56.828,65,-1,1357.50915750916,0.965478965478965,33.4211151483469
1743371336848,17:48:56.848,65,-1,1337.72893772894,0.964146964146964,33.4211151483469
1743371336867,17:48:56.867,65,-1,1320.87912087912,0.963258963258963,33.4211151483469
1743371336887,17:48:56.887,65,-1,1310.62271062271,0.962370962370962,33.4211151483469
1743371336906,17:48:56.906,65,-1,1306.22710622711,0.961926961926962,33.4211151483469
1743371336926,17:48:56.926,65,-1,1301.0989010989,0.96015096015096,33.4211151483469
1743371336945,17:48:56.945,65,-1,1289.37728937729,0.95970695970696,33.4211151483469
1743371336965,17:48:56.965,65,-1,1277.65567765568,0.958374958374958,33.4211151483469
1743371336984,17:48:56.984,65,-1,1263.73626373626,0.957930957930958,33.4211151483469
1743371337004,17:48:57.004,65,-1,1257.87545787546,0.956598956598956,33.4211151483469
1743371337023,17:48:57.023,65,-1,1265.93406593407,0.955710955710956,33.4211151483469
1743371337043,17:48:57.043,65,-1,1257.87545787546,0.955710955710956,33.4211151483469
1743371337062,17:48:57.062,65,-1,1221.97802197802,0.955266955266955,33.4211151483469
1743371337082,17:48:57.082,65,-1,1200.7326007326,0.955266955266955,33.4211151483469
1743371337101,17:48:57.101,65,-1,1193.40659340659,0.954822954822955,33.4211151483469
1743371337121,17:48:57.121,65,-1,1167.03296703297,0.954378954378954,33.4211151483469
1743371337140,17:48:57.140,65,-1,1149.45054945055,0.953490953490953,33.4211151483469
1743371337160,17:48:57.160,65,-1,1147.25274725275,0.952602952602952,33.4211151483469
1743371337179,17:48:57.179,65,-1,1164.10256410256,0.952158952158952,33.4411284807138
1743371337199,17:48:57.199,65,-1,1177.28937728938,0.952158952158952,33.4411284807138
1743371337218,17:48:57.218,65,-1,1169.23076923077,0.952158952158952,33.4411284807138
1743371337238,17:48:57.238,65,-1,1155.31135531136,0.952158952158952,33.4411284807138
1743371337257,17:48:57.257,65,-1,1147.25274725275,0.952602952602952,33.4411284807138
1743371337277,17:48:57.277,65,-1,1156.04395604396,0.952602952602952,33.4411284807138
1743371337296,17:48:57.296,65,-1,1183.88278388278,0.952602952602952,33.4411284807138
1743371337316,17:48:57.316,65,-1,1259.34065934066,0.953046953046953,33.4411284807138
1743371337335,17:48:57.335,65,-1,1361.17216117216,0.953490953490953,33.4411284807138
1743371337355,17:48:57.355,65,-1,1463.73626373626,0.952602952602952,33.4411284807138
1743371337374,17:48:57.374,65,-1,1556.77655677656,0.952158952158952,33.4411284807138
1743371337394,17:48:57.394,65,-1,1626.37362637363,0.952158952158952,33.4411284807138
1743371337413,17:48:57.413,65,-1,1673.99267399267,0.951714951714952,33.4411284807138
1743371337433,17:48:57.433,65,-1,1717.21611721612,0.950826950826951,33.4411284807138
1743371337452,17:48:57.452,65,-1,1745.05494505494,0.948606948606948,33.4411284807138
1743371337472,17:48:57.472,65,-1,1760.43956043956,0.946386946386946,33.4411284807138
1743371337491,17:48:57.491,65,-1,1759.70695970696,0.945054945054945,33.4411284807138
1743371337511,17:48:57.511,65,-1,1767.76556776557,0.943722943722944,33.4411284807138
1743371337530,17:48:57.530,65,-1,1777.28937728938,0.942834942834943,33.4411284807138
1743371337550,17:48:57.550,65,-1,1752.38095238095,0.942390942390942,33.4411284807138
1743371337569,17:48:57.569,65,-1,1701.8315018315,0.942390942390942,33.4411284807138
1743371337589,17:48:57.589,65,-1,1642.49084249084,0.941946941946942,33.4411284807138
1743371337608,17:48:57.608,65,-1,1580.21978021978,0.941946941946942,33.4411284807138
1743371337628,17:48:57.628,65,-1,1547.98534798535,0.941502941502941,33.4411284807138
1743371337647,17:48:57.647,65,-1,1532.60073260073,0.941502941502941,33.4411284807138
1743371337667,17:48:57.667,65,-1,1522.34432234432,0.941058941058941,33.4411284807138
1743371337686,17:48:57.686,65,-1,1503.2967032967,0.941502941502941,33.4411284807138
1743371337706,17:48:57.706,65,-1,1491.57509157509,0.94061494061494,33.4411284807138
1743371337725,17:48:57.725,65,-1,1480.58608058608,0.94017094017094,33.4411284807138
1743371337745,17:48:57.745,65,-1,1464.46886446886,0.939282939282939,33.4411284807138
1743371337764,17:48:57.764,65,-1,1445.42124542125,0.939282939282939,33.4411284807138
1743371337784,17:48:57.784,65,-1,1417.58241758242,0.938838938838939,33.4411284807138
1743371337803,17:48:57.803,65,-1,1391.94139194139,0.938838938838939,33.4411284807138
1743371337823,17:48:57.823,65,-1,1358.97435897436,0.937950937950938,33.4411284807138
1743371337842,17:48:57.842,65,-1,1327.47252747253,0.937950937950938,33.4411284807138
