RawTimestamp,LocalTime,HR_Direct,HR_Buffered,PPG,GSR,Temperature
1743371555705,17:52:35.705,-1,-1,0,4.44761904761905,26.4608428180218
1743371555725,17:52:35.725,-1,-1,0,4.44761904761905,26.4608428180218
1743371555744,17:52:35.744,-1,-1,0,2.02285276912142,26.4608428180218
1743371555764,17:52:35.764,-1,-1,0,2.02285276912142,26.4608428180218
1743371555783,17:52:35.783,-1,-1,0,2.02285276912142,26.4608428180218
1743371555803,17:52:35.803,-1,-1,0,2.02285276912142,26.4608428180218
1743371555822,17:52:35.822,-1,-1,0,2.02285276912142,26.4608428180218
1743371555842,17:52:35.842,-1,-1,0,1.98848770277342,26.4608428180218
1743371555861,17:52:35.861,-1,-1,0,1.98848770277342,26.4608428180218
1743371555881,17:52:35.881,-1,-1,0,1.98848770277342,26.4608428180218
1743371555900,17:52:35.900,-1,-1,0,1.98848770277342,26.4608428180218
1743371555920,17:52:35.920,-1,-1,0,1.98848770277342,26.4608428180218
1743371555939,17:52:35.939,-1,-1,0,1.996336996337,26.4608428180218
1743371555959,17:52:35.959,-1,-1,0,1.9978021978022,26.4608428180218
1743371555978,17:52:35.978,-1,-1,0,1.9992673992674,26.4608428180218
1743371555998,17:52:35.998,-1,-1,0,2.0021978021978,26.4608428180218
1743371556017,17:52:36.017,-1,-1,0,2.003663003663,26.4608428180218
1743371556037,17:52:36.037,-1,-1,0,2.00512820512821,26.4608428180218
1743371556056,17:52:36.056,-1,-1,0,2.00659340659341,26.4608428180218
1743371556076,17:52:36.076,-1,-1,0,2.00805860805861,26.4608428180218
1743371556095,17:52:36.095,-1,-1,0,2.00952380952381,26.4608428180218
1743371556115,17:52:36.115,-1,-1,0,2.01098901098901,26.4608428180218
1743371556134,17:52:36.134,-1,-1,0,2.01245421245421,26.4608428180218
1743371556154,17:52:36.154,-1,-1,0,2.01684981684982,26.4608428180218
1743371556173,17:52:36.173,-1,-1,0,2.01978021978022,26.4608428180218
1743371556193,17:52:36.193,-1,-1,0,2.02271062271062,26.4608428180218
1743371556212,17:52:36.212,-1,-1,0,2.02710622710623,26.4608428180218
1743371556232,17:52:36.232,-1,-1,0,2.03150183150183,26.4608428180218
1743371556251,17:52:36.251,-1,-1,0,2.03589743589744,26.4608428180218
1743371556271,17:52:36.271,-1,-1,0,2.03882783882784,26.4608428180218
1743371556290,17:52:36.290,-1,-1,0,2.04322344322344,26.4608428180218
1743371556310,17:52:36.310,-1,-1,0,2.04615384615385,26.4608428180218
1743371556329,17:52:36.329,-1,-1,0,2.04908424908425,26.4608428180218
1743371556349,17:52:36.349,-1,-1,0,2.05201465201465,26.4608428180218
1743371556368,17:52:36.368,-1,-1,0,2.05641025641026,26.4608428180218
1743371556388,17:52:36.388,-1,-1,0,2.06227106227106,26.4608428180218
1743371556407,17:52:36.407,-1,-1,0,2.06373626373626,26.4608428180218
1743371556427,17:52:36.427,-1,-1,0,2.06813186813187,26.4608428180218
1743371556446,17:52:36.446,-1,-1,0,2.07106227106227,26.4608428180218
1743371556466,17:52:36.466,-1,-1,0,2.07399267399267,26.4608428180218
1743371556485,17:52:36.485,-1,-1,0,2.07838827838828,26.4608428180218
1743371556505,17:52:36.505,-1,-1,0,2.08131868131868,26.4608428180218
1743371556524,17:52:36.524,-1,-1,0,2.08424908424908,26.4608428180218
1743371556544,17:52:36.544,-1,-1,0,2.08864468864469,26.4608428180218
1743371556563,17:52:36.563,-1,-1,0,2.09010989010989,26.4608428180218
1743371556583,17:52:36.583,-1,-1,0,2.0959706959707,26.4608428180218
1743371556602,17:52:36.602,-1,-1,0,2.1003663003663,26.4608428180218
1743371556622,17:52:36.622,-1,-1,0,2.1047619047619,33.776337953168
1743371556641,17:52:36.641,-1,-1,0,2.10915750915751,33.776337953168
1743371556661,17:52:36.661,-1,-1,0,2.11208791208791,33.776337953168
1743371556680,17:52:36.680,-1,-1,0,2.11794871794872,33.776337953168
1743371556700,17:52:36.700,-1,-1,0,2.11941391941392,33.776337953168
1743371556719,17:52:36.719,-1,-1,0,2.11941391941392,33.776337953168
1743371556739,17:52:36.739,-1,-1,0,2.11941391941392,33.776337953168
1743371556758,17:52:36.758,-1,-1,0,2.11501831501831,33.776337953168
1743371556778,17:52:36.778,-1,-1,0,2.11062271062271,33.776337953168
1743371556797,17:52:36.797,-1,-1,0,2.10769230769231,33.776337953168
1743371556817,17:52:36.817,-1,-1,0,2.10622710622711,33.776337953168
1743371556836,17:52:36.836,-1,-1,0,2.10622710622711,33.776337953168
1743371556856,17:52:36.856,-1,-1,0,2.10769230769231,33.776337953168
1743371556875,17:52:36.875,-1,-1,0,2.10915750915751,33.776337953168
1743371556895,17:52:36.895,-1,-1,0,2.10915750915751,33.776337953168
1743371556914,17:52:36.914,-1,-1,0,2.10915750915751,33.776337953168
1743371556934,17:52:36.934,-1,-1,0,2.11062271062271,33.776337953168
1743371556953,17:52:36.953,-1,-1,0,2.11208791208791,33.776337953168
1743371556973,17:52:36.973,-1,-1,0,2.11208791208791,33.776337953168
1743371556992,17:52:36.992,-1,-1,0,2.11355311355311,33.776337953168
1743371557012,17:52:37.012,-1,-1,0,2.11355311355311,33.776337953168
1743371557031,17:52:37.031,-1,-1,0,2.11501831501831,33.776337953168
1743371557051,17:52:37.051,-1,-1,0,2.11941391941392,33.776337953168
1743371557070,17:52:37.070,-1,-1,0,2.12234432234432,33.776337953168
1743371557090,17:52:37.090,-1,-1,0,2.12380952380952,33.776337953168
1743371557109,17:52:37.109,-1,-1,0,2.12527472527472,33.776337953168
1743371557129,17:52:37.129,-1,-1,0,2.12673992673993,33.776337953168
1743371557148,17:52:37.148,-1,-1,0,2.12820512820513,33.776337953168
1743371557168,17:52:37.168,-1,-1,0,2.12967032967033,33.776337953168
1743371557187,17:52:37.187,-1,-1,0,2.12967032967033,33.776337953168
1743371557207,17:52:37.207,-1,-1,0,2.13113553113553,33.776337953168
1743371557226,17:52:37.226,-1,-1,0,2.13113553113553,33.776337953168
1743371557246,17:52:37.246,-1,-1,0,2.13113553113553,33.776337953168
1743371557265,17:52:37.265,-1,-1,0,2.13260073260073,33.776337953168
1743371557285,17:52:37.285,-1,-1,0,2.13260073260073,33.776337953168
1743371557304,17:52:37.304,-1,-1,0,2.13260073260073,33.776337953168
1743371557324,17:52:37.324,-1,-1,0,2.13260073260073,33.776337953168
1743371557343,17:52:37.343,-1,-1,0,2.13406593406593,33.776337953168
1743371557363,17:52:37.363,-1,-1,0,2.13406593406593,33.776337953168
1743371557382,17:52:37.382,-1,-1,0,2.13406593406593,33.776337953168
1743371557402,17:52:37.402,-1,-1,0,2.13406593406593,33.776337953168
1743371557421,17:52:37.421,-1,-1,0,2.13406593406593,33.776337953168
1743371557441,17:52:37.441,-1,-1,0,2.13260073260073,33.776337953168
1743371557460,17:52:37.460,-1,-1,0,2.13406593406593,33.776337953168
1743371557480,17:52:37.480,-1,-1,0,2.13406593406593,33.776337953168
1743371557499,17:52:37.499,-1,-1,0,2.13260073260073,33.776337953168
1743371557519,17:52:37.519,-1,-1,52.7472527472527,2.13406593406593,33.776337953168
1743371557538,17:52:37.538,-1,-1,415.384615384615,2.13406593406593,33.776337953168
1743371557558,17:52:37.558,-1,-1,763.369963369963,2.13553113553114,33.776337953168
1743371557577,17:52:37.577,-1,-1,1003.663003663,2.13699633699634,33.776337953168
1743371557597,17:52:37.597,-1,-1,1144.32234432234,2.13846153846154,33.776337953168
1743371557616,17:52:37.616,-1,-1,1215.38461538462,2.13992673992674,33.776337953168
1743371557636,17:52:37.636,-1,-1,1230.03663003663,2.13992673992674,33.776337953168
1743371557655,17:52:37.655,-1,-1,1211.72161172161,2.14139194139194,33.776337953168
1743371557675,17:52:37.675,-1,-1,1183.88278388278,2.14285714285714,33.776337953168
1743371557694,17:52:37.694,-1,-1,1156.04395604396,2.14285714285714,33.776337953168
1743371557714,17:52:37.714,-1,-1,1126.00732600733,2.14432234432234,33.776337953168
1743371557733,17:52:37.733,-1,-1,1094.50549450549,2.14578754578755,33.776337953168
1743371557753,17:52:37.753,-1,-1,1082.78388278388,2.14725274725275,33.776337953168
1743371557772,17:52:37.772,-1,-1,1082.05128205128,2.14871794871795,33.776337953168
1743371557792,17:52:37.792,-1,-1,1082.78388278388,2.15018315018315,33.776337953168
1743371557811,17:52:37.811,-1,-1,1084.24908424908,2.15018315018315,33.776337953168
1743371557831,17:52:37.831,-1,-1,1089.37728937729,2.14871794871795,33.776337953168
1743371557850,17:52:37.850,-1,-1,1096.7032967033,2.14871794871795,33.776337953168
1743371557870,17:52:37.870,-1,-1,1095.2380952381,2.14871794871795,33.776337953168
1743371557889,17:52:37.889,-1,-1,1082.78388278388,2.14725274725275,33.776337953168
1743371557909,17:52:37.909,-1,-1,1070.32967032967,2.14725274725275,33.776337953168
1743371557928,17:52:37.928,-1,-1,1046.88644688645,2.14725274725275,33.776337953168
1743371557948,17:52:37.948,-1,-1,1032.23443223443,2.14578754578755,33.776337953168
1743371557967,17:52:37.967,-1,-1,1038.82783882784,2.14432234432234,33.776337953168
1743371557987,17:52:37.987,-1,-1,1041.75824175824,2.14432234432234,33.776337953168
1743371558006,17:52:38.006,-1,-1,1034.43223443223,2.14432234432234,33.776337953168
1743371558026,17:52:38.026,-1,-1,1033.69963369963,2.14432234432234,33.776337953168
1743371558045,17:52:38.045,-1,-1,1035.89743589744,2.14285714285714,33.776337953168
1743371558065,17:52:38.065,-1,-1,1036.63003663004,2.14285714285714,33.776337953168
1743371558084,17:52:38.084,-1,-1,1039.56043956044,2.14285714285714,33.776337953168
1743371558104,17:52:38.104,-1,-1,1024.90842490842,2.14285714285714,33.776337953168
1743371558123,17:52:38.123,-1,-1,1023.44322344322,2.14285714285714,33.776337953168
1743371558143,17:52:38.143,-1,-1,1018.31501831502,2.14139194139194,33.776337953168
1743371558162,17:52:38.162,-1,-1,1016.84981684982,2.14139194139194,33.776337953168
1743371558182,17:52:38.182,-1,-1,1011.72161172161,2.13992673992674,33.776337953168
1743371558201,17:52:38.201,-1,-1,1038.82783882784,2.14139194139194,33.776337953168
1743371558221,17:52:38.221,-1,-1,1093.77289377289,2.13992673992674,33.776337953168
1743371558240,17:52:38.240,-1,-1,1162.63736263736,2.13992673992674,33.776337953168
1743371558260,17:52:38.260,-1,-1,1220.51282051282,2.13992673992674,33.776337953168
1743371558279,17:52:38.279,-1,-1,1276.19047619048,2.13992673992674,33.776337953168
1743371558299,17:52:38.299,-1,-1,1328.93772893773,2.13846153846154,33.776337953168
1743371558318,17:52:38.318,-1,-1,1361.17216117216,2.13846153846154,33.776337953168
1743371558338,17:52:38.338,-1,-1,1391.20879120879,2.13846153846154,33.776337953168
1743371558357,17:52:38.357,-1,-1,1408.79120879121,2.13699633699634,33.776337953168
1743371558377,17:52:38.377,-1,-1,1441.02564102564,2.13553113553114,33.776337953168
1743371558396,17:52:38.396,-1,-1,1479.85347985348,2.13553113553114,33.776337953168
1743371558416,17:52:38.416,-1,-1,1502.5641025641,2.13406593406593,33.776337953168
1743371558435,17:52:38.435,-1,-1,1499.6336996337,2.13406593406593,33.776337953168
1743371558455,17:52:38.455,-1,-1,1463.73626373626,2.13260073260073,33.776337953168
1743371558474,17:52:38.474,-1,-1,1421.24542124542,2.13260073260073,33.776337953168
1743371558494,17:52:38.494,-1,-1,1416.11721611722,2.12967032967033,33.776337953168
1743371558513,17:52:38.513,-1,-1,1420.51282051282,2.12820512820513,33.776337953168
1743371558533,17:52:38.533,-1,-1,1421.97802197802,2.12820512820513,33.776337953168
1743371558552,17:52:38.552,-1,-1,1424.90842490842,2.12820512820513,33.776337953168
1743371558572,17:52:38.572,-1,-1,1421.97802197802,2.12673992673993,33.776337953168
1743371558591,17:52:38.591,-1,-1,1403.663003663,2.12527472527472,33.776337953168
1743371558611,17:52:38.611,-1,-1,1386.08058608059,2.12527472527472,33.7813408817165
1743371558630,17:52:38.630,-1,-1,1369.96336996337,2.12380952380952,33.7813408817165
1743371558650,17:52:38.650,-1,-1,1354.57875457875,2.12380952380952,33.7813408817165
1743371558669,17:52:38.669,-1,-1,1349.45054945055,2.12234432234432,33.7813408817165
1743371558689,17:52:38.689,-1,-1,1324.54212454212,2.12087912087912,33.7813408817165
1743371558708,17:52:38.708,-1,-1,1300.3663003663,2.12087912087912,33.7813408817165
1743371558728,17:52:38.728,-1,-1,1299.6336996337,2.12087912087912,33.7813408817165
1743371558747,17:52:38.747,-1,-1,1309.15750915751,2.11941391941392,33.7813408817165
1743371558767,17:52:38.767,-1,-1,1306.95970695971,2.11794871794872,33.7813408817165
1743371558786,17:52:38.786,-1,-1,1295.2380952381,2.11648351648352,33.7813408817165
1743371558806,17:52:38.806,-1,-1,1268.13186813187,2.11501831501831,33.7813408817165
1743371558825,17:52:38.825,-1,-1,1249.08424908425,2.11355311355311,33.7813408817165
1743371558845,17:52:38.845,-1,-1,1239.56043956044,2.11208791208791,33.7813408817165
1743371558864,17:52:38.864,-1,-1,1224.90842490842,2.11208791208791,33.7813408817165
1743371558884,17:52:38.884,-1,-1,1225.64102564103,2.11062271062271,33.7813408817165
1743371558903,17:52:38.903,-1,-1,1229.30402930403,2.11062271062271,33.7813408817165
1743371558923,17:52:38.923,-1,-1,1232.23443223443,2.11062271062271,33.7813408817165
1743371558942,17:52:38.942,-1,-1,1215.38461538462,2.11062271062271,33.7813408817165
1743371558962,17:52:38.962,-1,-1,1208.05860805861,2.11062271062271,33.7813408817165
1743371558981,17:52:38.981,-1,-1,1204.3956043956,2.10915750915751,33.7813408817165
1743371559001,17:52:39.001,-1,-1,1194.87179487179,2.10915750915751,33.7813408817165
1743371559020,17:52:39.020,-1,-1,1175.82417582418,2.10915750915751,33.7813408817165
1743371559040,17:52:39.040,-1,-1,1162.63736263736,2.10622710622711,33.7813408817165
1743371559059,17:52:39.059,-1,-1,1142.85714285714,2.10622710622711,33.7813408817165
1743371559079,17:52:39.079,-1,-1,1142.12454212454,2.11062271062271,33.7813408817165
1743371559098,17:52:39.098,-1,-1,1142.85714285714,2.11355311355311,33.7813408817165
1743371559118,17:52:39.118,-1,-1,1164.83516483516,2.11355311355311,33.7813408817165
1743371559137,17:52:39.137,-1,-1,1227.10622710623,2.11355311355311,33.7813408817165
1743371559157,17:52:39.157,-1,-1,1313.55311355311,2.11208791208791,33.7813408817165
1743371559176,17:52:39.176,-1,-1,1410.98901098901,2.11208791208791,33.7813408817165
1743371559196,17:52:39.196,-1,-1,1507.69230769231,2.11208791208791,33.7813408817165
1743371559215,17:52:39.215,-1,-1,1581.68498168498,2.11208791208791,33.7813408817165
1743371559235,17:52:39.235,-1,-1,1647.61904761905,2.11062271062271,33.7813408817165
1743371559254,17:52:39.254,-1,-1,1705.49450549451,2.11062271062271,33.7813408817165
1743371559274,17:52:39.274,-1,-1,1741.39194139194,2.10915750915751,33.7813408817165
1743371559293,17:52:39.293,-1,-1,1756.77655677656,2.10769230769231,33.7813408817165
1743371559313,17:52:39.313,-1,-1,1766.30036630037,2.10622710622711,33.7813408817165
1743371559332,17:52:39.332,-1,-1,1774.35897435897,2.10622710622711,33.7813408817165
1743371559352,17:52:39.352,-1,-1,1778.02197802198,2.10622710622711,33.7813408817165
1743371559371,17:52:39.371,-1,-1,1776.55677655678,2.10622710622711,33.7813408817165
1743371559391,17:52:39.391,-1,-1,1769.96336996337,2.1047619047619,33.7813408817165
1743371559410,17:52:39.410,-1,-1,1744.32234432234,2.1047619047619,33.7813408817165
1743371559430,17:52:39.430,-1,-1,1704.7619047619,2.1032967032967,33.7813408817165
1743371559449,17:52:39.449,-1,-1,1669.59706959707,2.1018315018315,33.7813408817165
1743371559469,17:52:39.469,-1,-1,1653.47985347985,2.1018315018315,33.7813408817165
1743371559488,17:52:39.488,-1,-1,1643.22344322344,2.1018315018315,33.7813408817165
1743371559508,17:52:39.508,-1,-1,1635.16483516484,2.1032967032967,33.7813408817165
1743371559527,17:52:39.527,-1,-1,1619.78021978022,2.1047619047619,33.7813408817165
1743371559547,17:52:39.547,-1,-1,1610.25641025641,2.10769230769231,33.7813408817165
1743371559566,17:52:39.566,-1,-1,1604.3956043956,2.10622710622711,33.7813408817165
1743371559586,17:52:39.586,-1,-1,1595.6043956044,2.10622710622711,33.7813408817165
1743371559605,17:52:39.605,-1,-1,1563.36996336996,2.10622710622711,33.7913467213511
1743371559625,17:52:39.625,-1,-1,1528.20512820513,2.1032967032967,33.7913467213511
1743371559644,17:52:39.644,-1,-1,1498.1684981685,2.1018315018315,33.7913467213511
1743371559664,17:52:39.664,-1,-1,1474.72527472527,2.1018315018315,33.7913467213511
1743371559683,17:52:39.683,-1,-1,1457.87545787546,2.1003663003663,33.7913467213511
1743371559703,17:52:39.703,-1,-1,1434.43223443223,2.1003663003663,33.7913467213511
1743371559722,17:52:39.722,-1,-1,1400.7326007326,2.0989010989011,33.7913467213511
1743371559742,17:52:39.742,-1,-1,1375.09157509157,2.0974358974359,33.7913467213511
1743371559761,17:52:39.761,-1,-1,1356.04395604396,2.0959706959707,33.7913467213511
1743371559781,17:52:39.781,-1,-1,1327.47252747253,2.09450549450549,33.7913467213511
1743371559800,17:52:39.800,-1,-1,1309.89010989011,2.09304029304029,33.7913467213511
1743371559820,17:52:39.820,-1,-1,1323.07692307692,2.09304029304029,33.7913467213511
1743371559839,17:52:39.839,-1,-1,1349.45054945055,2.09157509157509,33.7913467213511
1743371559859,17:52:39.859,-1,-1,1345.05494505494,2.09157509157509,33.7913467213511
1743371559878,17:52:39.878,-1,-1,1332.60073260073,2.09010989010989,33.7913467213511
1743371559898,17:52:39.898,-1,-1,1309.89010989011,2.08864468864469,33.7913467213511
1743371559917,17:52:39.917,-1,-1,1292.30769230769,2.08864468864469,33.7913467213511
1743371559937,17:52:39.937,-1,-1,1314.28571428571,2.08717948717949,33.7913467213511
1743371559956,17:52:39.956,-1,-1,1386.08058608059,2.08571428571429,33.7913467213511
1743371559976,17:52:39.976,-1,-1,1495.2380952381,2.08424908424908,33.7913467213511
1743371559995,17:52:39.995,-1,-1,1624.17582417582,2.08278388278388,33.7913467213511
1743371560015,17:52:40.015,-1,-1,1745.05494505494,2.08131868131868,33.7913467213511
1743371560035,17:52:40.034,-1,-1,1848.35164835165,2.08131868131868,33.7913467213511
1743371560054,17:52:40.054,-1,-1,1923.80952380952,2.07985347985348,33.7913467213511
1743371560074,17:52:40.073,-1,-1,1975.09157509157,2.07838827838828,33.7913467213511
1743371560093,17:52:40.093,-1,-1,2011.72161172161,2.07692307692308,33.7913467213511
1743371560113,17:52:40.112,-1,-1,2030.76923076923,2.07545787545788,33.7913467213511
1743371560132,17:52:40.132,-1,-1,2041.75824175824,2.07545787545788,33.7913467213511
1743371560152,17:52:40.151,-1,-1,2057.14285714286,2.07399267399267,33.7913467213511
1743371560171,17:52:40.171,-1,-1,2042.49084249084,2.07252747252747,33.7913467213511
1743371560191,17:52:40.191,-1,-1,2007.32600732601,2.07106227106227,33.7913467213511
1743371560210,17:52:40.210,-1,-1,1961.17216117216,2.06959706959707,33.7913467213511
1743371560230,17:52:40.230,-1,-1,1909.15750915751,2.06959706959707,33.7913467213511
1743371560249,17:52:40.249,-1,-1,1857.87545787546,2.06813186813187,33.7913467213511
1743371560269,17:52:40.269,-1,-1,1813.18681318681,2.06666666666667,33.7913467213511
1743371560288,17:52:40.288,-1,-1,1783.15018315018,2.06520146520146,33.7913467213511
1743371560308,17:52:40.308,-1,-1,1757.50915750916,2.06520146520146,33.7913467213511
1743371560327,17:52:40.327,-1,-1,1750.91575091575,2.06373626373626,33.7913467213511
1743371560347,17:52:40.347,-1,-1,1750.18315018315,2.06373626373626,33.7913467213511
1743371560366,17:52:40.366,-1,-1,1735.53113553114,2.06373626373626,33.7913467213511
1743371560386,17:52:40.386,-1,-1,1709.15750915751,2.06227106227106,33.7913467213511
1743371560405,17:52:40.405,-1,-1,1675.45787545788,2.06227106227106,33.7913467213511
1743371560425,17:52:40.425,-1,-1,1636.63003663004,2.06227106227106,33.7913467213511
1743371560444,17:52:40.444,-1,-1,1602.9304029304,2.06227106227106,33.7913467213511
1743371560464,17:52:40.464,-1,-1,1563.36996336996,2.06227106227106,33.7913467213511
1743371560483,17:52:40.483,-1,-1,1517.21611721612,2.06227106227106,33.7913467213511
1743371560503,17:52:40.503,-1,-1,1482.05128205128,2.06227106227106,33.7913467213511
1743371560522,17:52:40.522,-1,-1,1471.79487179487,2.06227106227106,33.7913467213511
1743371560542,17:52:40.542,-1,-1,1454.21245421245,2.06080586080586,33.7913467213511
1743371560561,17:52:40.561,-1,-1,1420.51282051282,2.06080586080586,33.7913467213511
1743371560581,17:52:40.581,-1,-1,1395.6043956044,2.06080586080586,33.7913467213511
1743371560600,17:52:40.600,-1,-1,1377.28937728938,2.06080586080586,33.7863438044442
1743371560620,17:52:40.620,-1,-1,1368.49816849817,2.06080586080586,33.7863438044442
1743371560639,17:52:40.639,-1,-1,1347.98534798535,2.05934065934066,33.7863438044442
1743371560659,17:52:40.659,-1,-1,1333.33333333333,2.05934065934066,33.7863438044442
1743371560678,17:52:40.678,-1,-1,1325.27472527473,2.06080586080586,33.7863438044442
1743371560698,17:52:40.698,-1,-1,1322.34432234432,2.05934065934066,33.7863438044442
1743371560717,17:52:40.717,-1,-1,1315.75091575092,2.05934065934066,33.7863438044442
1743371560737,17:52:40.737,-1,-1,1287.91208791209,2.05934065934066,33.7863438044442
1743371560756,17:52:40.756,-1,-1,1254.94505494505,2.05934065934066,33.7863438044442
1743371560776,17:52:40.776,-1,-1,1243.95604395604,2.05787545787546,33.7863438044442
1743371560795,17:52:40.795,-1,-1,1259.34065934066,2.05787545787546,33.7863438044442
1743371560815,17:52:40.815,-1,-1,1311.35531135531,2.05787545787546,33.7863438044442
1743371560834,17:52:40.834,-1,-1,1397.8021978022,2.05641025641026,33.7863438044442
1743371560854,17:52:40.854,-1,-1,1538.46153846154,2.05494505494505,33.7863438044442
1743371560873,17:52:40.873,-1,-1,1685.71428571429,2.05494505494505,33.7863438044442
1743371560893,17:52:40.893,-1,-1,1817.58241758242,2.05347985347985,33.7863438044442
1743371560912,17:52:40.912,-1,-1,1910.62271062271,2.05347985347985,33.7863438044442
1743371560932,17:52:40.932,-1,-1,1966.30036630037,2.05201465201465,33.7863438044442
1743371560951,17:52:40.951,-1,-1,1991.20879120879,2.05201465201465,33.7863438044442
1743371560971,17:52:40.971,-1,-1,2000,2.05054945054945,33.7863438044442
1743371560990,17:52:40.990,-1,-1,2005.86080586081,2.04908424908425,33.7863438044442
1743371561010,17:52:41.010,-1,-1,1998.5347985348,2.04761904761905,33.7863438044442
1743371561029,17:52:41.029,-1,-1,1991.20879120879,2.04761904761905,33.7863438044442
1743371561049,17:52:41.049,-1,-1,1967.76556776557,2.04615384615385,33.7863438044442
1743371561068,17:52:41.068,-1,-1,1922.34432234432,2.04615384615385,33.7863438044442
1743371561088,17:52:41.088,-1,-1,1873.99267399267,2.04468864468864,33.7863438044442
1743371561107,17:52:41.107,-1,-1,1818.31501831502,2.04322344322344,33.7863438044442
1743371561127,17:52:41.127,-1,-1,1772.89377289377,2.04322344322344,33.7863438044442
1743371561146,17:52:41.146,-1,-1,1741.39194139194,2.04175824175824,33.7863438044442
1743371561166,17:52:41.166,-1,-1,1715.01831501831,2.04175824175824,33.7863438044442
1743371561185,17:52:41.185,-1,-1,1676.92307692308,2.04029304029304,33.7863438044442
1743371561205,17:52:41.205,-1,-1,1650.54945054945,2.04029304029304,33.7863438044442
1743371561224,17:52:41.224,-1,-1,1627.10622710623,2.04029304029304,33.7863438044442
1743371561244,17:52:41.244,-1,-1,1598.5347985348,2.03882783882784,33.7863438044442
1743371561263,17:52:41.263,-1,-1,1558.97435897436,2.03882783882784,33.7863438044442
1743371561283,17:52:41.283,-1,-1,1518.68131868132,2.03882783882784,33.7863438044442
1743371561302,17:52:41.302,-1,-1,1475.45787545788,2.03882783882784,33.7863438044442
1743371561322,17:52:41.322,-1,-1,1450.54945054945,2.03736263736264,33.7863438044442
1743371561341,17:52:41.341,-1,-1,1418.31501831502,2.03736263736264,33.7863438044442
1743371561361,17:52:41.361,-1,-1,1380.95238095238,2.03736263736264,33.7863438044442
1743371561380,17:52:41.380,-1,-1,1351.64835164835,2.03736263736264,33.7863438044442
1743371561400,17:52:41.400,-1,-1,1326.00732600733,2.03736263736264,33.7863438044442
1743371561419,17:52:41.419,-1,-1,1290.84249084249,2.03736263736264,33.7863438044442
1743371561439,17:52:41.439,-1,-1,1264.46886446886,2.03589743589744,33.7863438044442
1743371561458,17:52:41.458,-1,-1,1244.68864468864,2.03589743589744,33.7863438044442
1743371561478,17:52:41.478,-1,-1,1221.97802197802,2.03443223443223,33.7863438044442
1743371561497,17:52:41.497,-1,-1,1209.52380952381,2.03443223443223,33.7863438044442
1743371561517,17:52:41.517,-1,-1,1208.79120879121,2.03443223443223,33.7863438044442
1743371561536,17:52:41.536,-1,-1,1218.31501831502,2.03443223443223,33.7863438044442
1743371561556,17:52:41.556,-1,-1,1205.86080586081,2.03296703296703,33.7863438044442
1743371561575,17:52:41.575,-1,-1,1199.2673992674,2.03150183150183,33.7863438044442
1743371561595,17:52:41.595,-1,-1,1197.8021978022,2.03150183150183,33.8013525377028
1743371561614,17:52:41.614,-1,-1,1190.47619047619,2.03296703296703,33.8013525377028
1743371561634,17:52:41.634,-1,-1,1169.96336996337,2.03150183150183,33.8013525377028
1743371561653,17:52:41.653,-1,-1,1147.25274725275,2.03003663003663,33.8013525377028
1743371561673,17:52:41.673,-1,-1,1127.47252747253,2.03003663003663,33.8013525377028
1743371561692,17:52:41.692,-1,-1,1109.15750915751,2.03003663003663,33.8013525377028
1743371561712,17:52:41.712,-1,-1,1101.8315018315,2.03003663003663,33.8013525377028
1743371561731,17:52:41.731,-1,-1,1111.35531135531,2.02857142857143,33.8013525377028
1743371561751,17:52:41.751,-1,-1,1162.63736263736,2.02857142857143,33.8013525377028
1743371561770,17:52:41.770,-1,-1,1260.07326007326,2.02857142857143,33.8013525377028
1743371561790,17:52:41.790,-1,-1,1389.74358974359,2.02710622710623,33.8013525377028
1743371561809,17:52:41.809,-1,-1,1527.47252747253,2.02710622710623,33.8013525377028
1743371561829,17:52:41.829,-1,-1,1635.16483516484,2.02710622710623,33.8013525377028
1743371561848,17:52:41.848,-1,-1,1712.08791208791,2.02564102564103,33.8013525377028
1743371561868,17:52:41.868,-1,-1,1761.17216117216,2.02564102564103,33.8013525377028
1743371561887,17:52:41.887,-1,-1,1786.08058608059,2.02564102564103,33.8013525377028
1743371561907,17:52:41.907,-1,-1,1791.94139194139,2.02417582417582,33.8013525377028
1743371561926,17:52:41.926,-1,-1,1781.68498168498,2.02417582417582,33.8013525377028
1743371561946,17:52:41.946,-1,-1,1761.17216117216,2.02417582417582,33.8013525377028
1743371561965,17:52:41.965,-1,-1,1739.92673992674,2.02271062271062,33.8013525377028
1743371561985,17:52:41.985,-1,-1,1723.80952380952,2.02271062271062,33.8013525377028
1743371562004,17:52:42.004,-1,-1,1692.30769230769,2.02124542124542,33.8013525377028
1743371562024,17:52:42.024,-1,-1,1646.88644688645,2.02124542124542,33.8013525377028
1743371562043,17:52:42.043,-1,-1,1594.87179487179,2.01978021978022,33.8013525377028
1743371562063,17:52:42.063,-1,-1,1548.71794871795,2.01978021978022,33.8013525377028
1743371562082,17:52:42.082,-1,-1,1515.01831501831,2.01978021978022,33.8013525377028
1743371562102,17:52:42.102,-1,-1,1485.71428571429,2.01978021978022,33.8013525377028
1743371562121,17:52:42.121,-1,-1,1464.46886446886,2.01831501831502,33.8013525377028
1743371562141,17:52:42.141,-1,-1,1453.47985347985,2.01684981684982,33.8013525377028
1743371562160,17:52:42.160,-1,-1,1434.43223443223,2.01684981684982,33.8013525377028
1743371562180,17:52:42.180,-1,-1,1398.5347985348,2.01684981684982,33.8013525377028
1743371562199,17:52:42.199,-1,-1,1358.97435897436,2.01684981684982,33.8013525377028
1743371562219,17:52:42.219,-1,-1,1343.58974358974,2.01538461538462,33.8013525377028
1743371562238,17:52:42.238,-1,-1,1325.27472527473,2.01538461538462,33.8013525377028
1743371562258,17:52:42.258,-1,-1,1306.95970695971,2.01391941391941,33.8013525377028
1743371562277,17:52:42.277,-1,-1,1279.85347985348,2.01391941391941,33.8013525377028
1743371562297,17:52:42.297,-1,-1,1252.74725274725,2.01245421245421,33.8013525377028
1743371562316,17:52:42.316,-1,-1,1241.75824175824,2.01245421245421,33.8013525377028
1743371562336,17:52:42.336,-1,-1,1227.83882783883,2.01245421245421,33.8013525377028
1743371562355,17:52:42.355,-1,-1,1212.45421245421,2.01098901098901,33.8013525377028
1743371562375,17:52:42.375,-1,-1,1194.87179487179,2.01098901098901,33.8013525377028
1743371562394,17:52:42.394,-1,-1,1178.75457875458,2.00952380952381,33.8013525377028
1743371562414,17:52:42.414,-1,-1,1165.56776556777,2.00952380952381,33.8013525377028
1743371562433,17:52:42.433,-1,-1,1138.46153846154,2.00952380952381,33.8013525377028
1743371562453,17:52:42.453,-1,-1,1111.35531135531,2.00952380952381,33.8013525377028
1743371562472,17:52:42.472,-1,-1,1099.6336996337,2.00952380952381,33.8013525377028
1743371562492,17:52:42.492,-1,-1,1092.30769230769,2.00805860805861,33.8013525377028
1743371562511,17:52:42.511,-1,-1,1088.64468864469,2.00805860805861,33.8013525377028
1743371562531,17:52:42.531,-1,-1,1085.71428571429,2.00659340659341,33.8013525377028
1743371562550,17:52:42.550,-1,-1,1089.37728937729,2.00659340659341,33.8013525377028
1743371562570,17:52:42.570,-1,-1,1095.2380952381,2.00659340659341,33.8013525377028
1743371562589,17:52:42.589,-1,-1,1092.30769230769,2.00659340659341,33.7913467213511
1743371562609,17:52:42.609,-1,-1,1073.99267399267,2.00659340659341,33.7913467213511
1743371562628,17:52:42.628,-1,-1,1061.53846153846,2.00512820512821,33.7913467213511
1743371562648,17:52:42.648,-1,-1,1055.67765567766,2.00512820512821,33.7913467213511
1743371562667,17:52:42.667,-1,-1,1050.54945054945,2.00512820512821,33.7913467213511
1743371562687,17:52:42.687,-1,-1,1066.66666666667,2.00512820512821,33.7913467213511
1743371562706,17:52:42.706,-1,-1,1119.41391941392,2.003663003663,33.7913467213511
1743371562726,17:52:42.726,-1,-1,1200,2.003663003663,33.7913467213511
1743371562745,17:52:42.745,-1,-1,1303.2967032967,2.003663003663,33.7913467213511
1743371562765,17:52:42.765,-1,-1,1389.74358974359,2.0021978021978,33.7913467213511
1743371562784,17:52:42.784,-1,-1,1469.59706959707,2.003663003663,33.7913467213511
1743371562804,17:52:42.804,-1,-1,1521.61172161172,2.0021978021978,33.7913467213511
1743371562823,17:52:42.823,-1,-1,1563.36996336996,2.0021978021978,33.7913467213511
1743371562843,17:52:42.843,-1,-1,1586.81318681319,2.0021978021978,33.7913467213511
1743371562862,17:52:42.862,-1,-1,1593.40659340659,2.0007326007326,33.7913467213511
1743371562882,17:52:42.882,-1,-1,1595.6043956044,2.0007326007326,33.7913467213511
1743371562901,17:52:42.901,-1,-1,1575.82417582418,2.0007326007326,33.7913467213511
1743371562921,17:52:42.921,-1,-1,1545.78754578755,1.9992673992674,33.7913467213511
1743371562940,17:52:42.940,-1,-1,1531.86813186813,1.9992673992674,33.7913467213511
1743371562960,17:52:42.960,-1,-1,1512.82051282051,1.9978021978022,33.7913467213511
1743371562979,17:52:42.979,-1,-1,1482.78388278388,1.9992673992674,33.7913467213511
1743371562999,17:52:42.999,-1,-1,1458.60805860806,1.9978021978022,33.7913467213511
1743371563018,17:52:43.018,-1,-1,1427.83882783883,1.9978021978022,33.7913467213511
1743371563038,17:52:43.038,-1,-1,1401.4652014652,1.9978021978022,33.7913467213511
1743371563057,17:52:43.057,-1,-1,1383.15018315018,1.9978021978022,33.7913467213511
1743371563077,17:52:43.077,-1,-1,1369.96336996337,1.996336996337,33.7913467213511
1743371563096,17:52:43.096,-1,-1,1363.36996336996,1.996336996337,33.7913467213511
1743371563116,17:52:43.116,-1,-1,1351.64835164835,1.99487179487179,33.7913467213511
1743371563135,17:52:43.135,-1,-1,1334.79853479853,1.99487179487179,33.7913467213511
1743371563155,17:52:43.155,-1,-1,1314.28571428571,1.99487179487179,33.7913467213511
1743371563174,17:52:43.174,-1,-1,1287.91208791209,1.99487179487179,33.7913467213511
1743371563194,17:52:43.194,-1,-1,1257.14285714286,1.99340659340659,33.7913467213511
1743371563213,17:52:43.213,-1,-1,1237.36263736264,1.99340659340659,33.7913467213511
1743371563233,17:52:43.233,-1,-1,1210.25641025641,1.99340659340659,33.7913467213511
1743371563252,17:52:43.252,-1,-1,1193.40659340659,1.99340659340659,33.7913467213511
1743371563272,17:52:43.272,-1,-1,1175.82417582418,1.99340659340659,33.7913467213511
1743371563291,17:52:43.291,-1,-1,1158.97435897436,1.99194139194139,33.7913467213511
1743371563311,17:52:43.311,-1,-1,1147.98534798535,1.99047619047619,33.7913467213511
1743371563330,17:52:43.330,-1,-1,1136.26373626374,1.99047619047619,33.7913467213511
1743371563350,17:52:43.350,-1,-1,1127.47252747253,1.98901098901099,33.7913467213511
1743371563369,17:52:43.369,-1,-1,1119.41391941392,1.98901098901099,33.7913467213511
1743371563389,17:52:43.389,-1,-1,1106.95970695971,1.98901098901099,33.7913467213511
1743371563408,17:52:43.408,-1,-1,1101.8315018315,1.98754578754579,33.7913467213511
1743371563428,17:52:43.428,-1,-1,1098.1684981685,1.98754578754579,33.7913467213511
1743371563447,17:52:43.447,-1,-1,1083.51648351648,1.98608058608059,33.7913467213511
1743371563467,17:52:43.467,-1,-1,1063.00366300366,1.98754578754579,33.7913467213511
1743371563486,17:52:43.486,-1,-1,1060.80586080586,1.98608058608059,33.7913467213511
1743371563506,17:52:43.506,-1,-1,1071.79487179487,1.98608058608059,33.7913467213511
1743371563525,17:52:43.525,-1,-1,1065.93406593407,1.98608058608059,33.7913467213511
1743371563545,17:52:43.545,-1,-1,1063.00366300366,1.98461538461538,33.7913467213511
1743371563564,17:52:43.564,-1,-1,1057.87545787546,1.98461538461538,33.7913467213511
1743371563584,17:52:43.584,-1,-1,1043.22344322344,1.98461538461538,33.7963496324373
1743371563603,17:52:43.603,-1,-1,1027.10622710623,1.98315018315018,33.7963496324373
1743371563623,17:52:43.623,-1,-1,1021.24542124542,1.98168498168498,33.7963496324373
1743371563642,17:52:43.642,-1,-1,1025.64102564103,1.98168498168498,33.7963496324373
1743371563662,17:52:43.662,-1,-1,1039.56043956044,1.98021978021978,33.7963496324373
1743371563681,17:52:43.681,-1,-1,1081.31868131868,1.98021978021978,33.7963496324373
1743371563701,17:52:43.701,-1,-1,1155.31135531136,1.98021978021978,33.7963496324373
1743371563720,17:52:43.720,-1,-1,1237.36263736264,1.98168498168498,33.7963496324373
1743371563740,17:52:43.740,-1,-1,1328.93772893773,1.98021978021978,33.7963496324373
1743371563759,17:52:43.759,-1,-1,1410.98901098901,1.98021978021978,33.7963496324373
1743371563779,17:52:43.779,-1,-1,1472.52747252747,1.98168498168498,33.7963496324373
1743371563798,17:52:43.798,-1,-1,1501.8315018315,1.98021978021978,33.7963496324373
1743371563818,17:52:43.818,-1,-1,1493.04029304029,1.97875457875458,33.7963496324373
1743371563837,17:52:43.837,-1,-1,1482.78388278388,1.97875457875458,33.7963496324373
1743371563857,17:52:43.857,-1,-1,1468.13186813187,1.97728937728938,33.7963496324373
1743371563876,17:52:43.876,-1,-1,1449.08424908425,1.97582417582418,33.7963496324373
1743371563896,17:52:43.896,-1,-1,1447.61904761905,1.97582417582418,33.7963496324373
1743371563915,17:52:43.915,-1,-1,1435.89743589744,1.97582417582418,33.7963496324373
1743371563935,17:52:43.935,-1,-1,1432.23443223443,1.97582417582418,33.7963496324373
1743371563954,17:52:43.954,-1,-1,1423.44322344322,1.97582417582418,33.7963496324373
1743371563974,17:52:43.974,-1,-1,1386.81318681319,1.97582417582418,33.7963496324373
1743371563993,17:52:43.993,-1,-1,1349.45054945055,1.97582417582418,33.7963496324373
1743371564013,17:52:44.013,-1,-1,1329.67032967033,1.97582417582418,33.7963496324373
1743371564032,17:52:44.032,-1,-1,1336.99633699634,1.97728937728938,33.7963496324373
1743371564052,17:52:44.052,65,-1,1351.64835164835,1.97728937728938,33.7963496324373
1743371564071,17:52:44.071,65,-1,1351.64835164835,1.97728937728938,33.7963496324373
1743371564091,17:52:44.091,65,-1,1338.46153846154,1.97582417582418,33.7963496324373
1743371564110,17:52:44.110,65,-1,1320.14652014652,1.97582417582418,33.7963496324373
1743371564130,17:52:44.130,65,-1,1304.7619047619,1.97582417582418,33.7963496324373
1743371564149,17:52:44.149,65,-1,1290.84249084249,1.97582417582418,33.7963496324373
1743371564169,17:52:44.169,65,-1,1268.86446886447,1.97582417582418,33.7963496324373
1743371564188,17:52:44.188,65,-1,1241.75824175824,1.97435897435897,33.7963496324373
1743371564208,17:52:44.208,65,-1,1220.51282051282,1.97435897435897,33.7963496324373
1743371564227,17:52:44.227,65,-1,1192.67399267399,1.97289377289377,33.7963496324373
1743371564247,17:52:44.247,65,-1,1171.42857142857,1.97289377289377,33.7963496324373
1743371564266,17:52:44.266,65,-1,1165.56776556777,1.97289377289377,33.7963496324373
1743371564286,17:52:44.286,65,-1,1161.90476190476,1.97289377289377,33.7963496324373
1743371564305,17:52:44.305,65,-1,1151.64835164835,1.97142857142857,33.7963496324373
1743371564325,17:52:44.325,65,-1,1145.78754578755,1.97142857142857,33.7963496324373
1743371564344,17:52:44.344,65,-1,1128.20512820513,1.96996336996337,33.7963496324373
1743371564364,17:52:44.364,65,-1,1112.08791208791,1.96996336996337,33.7963496324373
1743371564383,17:52:44.383,65,-1,1119.41391941392,1.96996336996337,33.7963496324373
1743371564403,17:52:44.403,65,-1,1124.54212454212,1.96996336996337,33.7963496324373
1743371564422,17:52:44.422,65,-1,1121.61172161172,1.96996336996337,33.7963496324373
1743371564442,17:52:44.442,65,-1,1121.61172161172,1.96996336996337,33.7963496324373
1743371564461,17:52:44.461,65,-1,1111.35531135531,1.96996336996337,33.7963496324373
1743371564481,17:52:44.481,65,-1,1101.0989010989,1.96849816849817,33.7963496324373
1743371564500,17:52:44.500,65,-1,1101.8315018315,1.96849816849817,33.7963496324373
1743371564520,17:52:44.520,65,-1,1106.95970695971,1.96849816849817,33.7963496324373
1743371564539,17:52:44.539,65,-1,1108.42490842491,1.96849816849817,33.7963496324373
1743371564559,17:52:44.559,65,-1,1107.69230769231,1.96703296703297,33.7963496324373
1743371564578,17:52:44.578,65,-1,1120.87912087912,1.96849816849817,33.7963496324373
1743371564598,17:52:44.598,65,-1,1166.30036630037,1.96703296703297,33.7963496324373
1743371564617,17:52:44.617,65,-1,1235.16483516484,1.96703296703297,33.7963496324373
1743371564637,17:52:44.637,65,-1,1312.08791208791,1.96703296703297,33.7963496324373
1743371564656,17:52:44.656,65,-1,1396.336996337,1.96556776556777,33.7963496324373
1743371564676,17:52:44.676,65,-1,1476.19047619048,1.96556776556777,33.7963496324373
1743371564695,17:52:44.695,65,-1,1534.06593406593,1.96556776556777,33.7963496324373
1743371564715,17:52:44.715,65,-1,1566.30036630037,1.96556776556777,33.7963496324373
1743371564734,17:52:44.734,65,-1,1576.55677655678,1.96410256410256,33.7963496324373
1743371564754,17:52:44.754,65,-1,1585.34798534799,1.96410256410256,33.7963496324373
1743371564773,17:52:44.773,65,-1,1596.336996337,1.96410256410256,33.7963496324373
1743371564793,17:52:44.793,65,-1,1605.12820512821,1.96263736263736,33.7963496324373
1743371564812,17:52:44.812,65,-1,1591.94139194139,1.96263736263736,33.7963496324373
1743371564832,17:52:44.832,65,-1,1560.43956043956,1.96263736263736,33.7963496324373
1743371564851,17:52:44.851,65,-1,1528.93772893773,1.96263736263736,33.7963496324373
1743371564871,17:52:44.871,65,-1,1498.1684981685,1.96263736263736,33.7963496324373
1743371564890,17:52:44.890,65,-1,1473.99267399267,1.96117216117216,33.7963496324373
1743371564910,17:52:44.910,73,-1,1461.53846153846,1.96117216117216,33.7963496324373
1743371564929,17:52:44.929,73,-1,1454.21245421245,1.96117216117216,33.7963496324373
1743371564949,17:52:44.949,73,-1,1449.81684981685,1.95970695970696,33.7963496324373
1743371564968,17:52:44.968,73,-1,1435.89743589744,1.95970695970696,33.7963496324373
1743371564988,17:52:44.988,73,-1,1405.12820512821,1.95970695970696,33.7963496324373
1743371565007,17:52:45.007,73,-1,1387.54578754579,1.95824175824176,33.7963496324373
1743371565027,17:52:45.027,73,-1,1381.68498168498,1.95824175824176,33.7963496324373
1743371565046,17:52:45.046,73,-1,1381.68498168498,1.95677655677656,33.7963496324373
1743371565066,17:52:45.066,73,-1,1378.75457875458,1.95677655677656,33.7963496324373
1743371565085,17:52:45.085,73,-1,1360.43956043956,1.95677655677656,33.7963496324373
1743371565105,17:52:45.105,73,-1,1341.39194139194,1.95531135531136,33.7963496324373
1743371565124,17:52:45.124,73,-1,1331.13553113553,1.95531135531136,33.7963496324373
1743371565144,17:52:45.144,73,-1,1308.42490842491,1.95531135531136,33.7963496324373
1743371565163,17:52:45.163,73,-1,1273.26007326007,1.95531135531136,33.7963496324373
1743371565183,17:52:45.183,73,-1,1249.08424908425,1.95531135531136,33.7963496324373
1743371565202,17:52:45.202,73,-1,1236.63003663004,1.95384615384615,33.7963496324373
1743371565222,17:52:45.222,73,-1,1222.71062271062,1.95384615384615,33.7963496324373
1743371565241,17:52:45.241,73,-1,1200.7326007326,1.95238095238095,33.7963496324373
1743371565261,17:52:45.261,73,-1,1205.12820512821,1.95238095238095,33.7963496324373
1743371565280,17:52:45.280,73,-1,1215.38461538462,1.95384615384615,33.7963496324373
1743371565300,17:52:45.300,73,-1,1215.38461538462,1.95531135531136,33.7963496324373
1743371565319,17:52:45.319,73,-1,1205.86080586081,1.95531135531136,33.7963496324373
1743371565339,17:52:45.339,73,-1,1211.72161172161,1.95531135531136,33.7963496324373
1743371565358,17:52:45.358,73,-1,1202.9304029304,1.95384615384615,33.7963496324373
1743371565378,17:52:45.378,73,-1,1190.47619047619,1.95531135531136,33.7963496324373
1743371565397,17:52:45.397,73,-1,1189.01098901099,1.95531135531136,33.7963496324373
1743371565417,17:52:45.417,73,-1,1200.7326007326,1.95531135531136,33.7963496324373
1743371565436,17:52:45.436,73,-1,1254.94505494505,1.95384615384615,33.7963496324373
1743371565456,17:52:45.456,73,-1,1348.71794871795,1.95384615384615,33.7963496324373
1743371565475,17:52:45.475,73,-1,1460.80586080586,1.95384615384615,33.7963496324373
1743371565495,17:52:45.495,73,-1,1565.56776556777,1.95384615384615,33.7963496324373
1743371565514,17:52:45.514,73,-1,1646.15384615385,1.95384615384615,33.7963496324373
1743371565534,17:52:45.534,73,-1,1701.8315018315,1.95384615384615,33.7963496324373
1743371565553,17:52:45.553,73,-1,1755.31135531136,1.95384615384615,33.7963496324373
1743371565573,17:52:45.573,73,-1,1783.88278388278,1.95384615384615,33.7963496324373
1743371565592,17:52:45.592,73,-1,1810.25641025641,1.95384615384615,33.7963496324373
1743371565612,17:52:45.612,73,-1,1830.76923076923,1.95384615384615,33.7963496324373
1743371565631,17:52:45.631,73,-1,1824.90842490842,1.95238095238095,33.7963496324373
1743371565651,17:52:45.651,73,-1,1801.4652014652,1.95238095238095,33.7963496324373
1743371565670,17:52:45.670,73,-1,1782.41758241758,1.95238095238095,33.7963496324373
1743371565690,17:52:45.690,73,-1,1734.06593406593,1.95238095238095,33.7963496324373
1743371565709,17:52:45.709,73,-1,1683.51648351648,1.95238095238095,33.7963496324373
1743371565729,17:52:45.729,73,-1,1646.88644688645,1.95238095238095,33.7963496324373
1743371565748,17:52:45.748,73,-1,1610.25641025641,1.95238095238095,33.7963496324373
1743371565768,17:52:45.768,73,-1,1597.0695970696,1.95384615384615,33.7963496324373
1743371565787,17:52:45.787,73,-1,1593.40659340659,1.95384615384615,33.7963496324373
1743371565807,17:52:45.807,73,-1,1579.48717948718,1.95824175824176,33.7963496324373
1743371565826,17:52:45.826,70,-1,1576.55677655678,1.96996336996337,33.7963496324373
1743371565846,17:52:45.846,70,-1,1564.10256410256,1.97289377289377,33.7963496324373
1743371565865,17:52:45.865,70,-1,1545.05494505494,1.97435897435897,33.7963496324373
1743371565885,17:52:45.885,70,-1,1529.67032967033,1.97435897435897,33.7963496324373
1743371565904,17:52:45.904,70,-1,1514.28571428571,1.97582417582418,33.7963496324373
1743371565924,17:52:45.924,70,-1,1498.1684981685,1.97582417582418,33.7963496324373
1743371565943,17:52:45.943,70,-1,1467.39926739927,1.97582417582418,33.7963496324373
1743371565963,17:52:45.963,70,-1,1430.76923076923,1.97728937728938,33.7963496324373
1743371565982,17:52:45.982,70,-1,1381.68498168498,1.97875457875458,33.7963496324373
1743371566002,17:52:46.002,70,-1,1343.58974358974,1.98021978021978,33.7963496324373
1743371566021,17:52:46.021,70,-1,1315.75091575092,1.98021978021978,33.7963496324373
1743371566041,17:52:46.041,70,-1,1292.30769230769,1.98168498168498,33.7963496324373
1743371566060,17:52:46.060,70,-1,1280.58608058608,1.98315018315018,33.7963496324373
1743371566080,17:52:46.080,70,-1,1286.44688644689,1.98461538461538,33.7963496324373
1743371566099,17:52:46.099,70,-1,1287.91208791209,1.98608058608059,33.7963496324373
1743371566119,17:52:46.119,70,-1,1280.58608058608,1.98754578754579,33.7963496324373
1743371566138,17:52:46.138,70,-1,1265.93406593407,1.98901098901099,33.7963496324373
1743371566158,17:52:46.158,70,-1,1254.94505494505,1.99047619047619,33.7963496324373
1743371566177,17:52:46.177,70,-1,1244.68864468864,1.99047619047619,33.7963496324373
1743371566197,17:52:46.197,70,-1,1229.30402930403,1.99194139194139,33.7963496324373
1743371566216,17:52:46.216,70,-1,1205.12820512821,1.99340659340659,33.7963496324373
1743371566236,17:52:46.236,70,-1,1194.87179487179,1.99487179487179,33.7963496324373
1743371566255,17:52:46.255,70,-1,1208.05860805861,1.99487179487179,33.7963496324373
1743371566275,17:52:46.275,70,-1,1249.81684981685,1.996336996337,33.7963496324373
1743371566294,17:52:46.294,70,-1,1334.06593406593,1.996336996337,33.7963496324373
1743371566314,17:52:46.314,70,-1,1474.72527472527,1.9978021978022,33.7963496324373
1743371566333,17:52:46.333,70,-1,1627.83882783883,1.9992673992674,33.7963496324373
1743371566353,17:52:46.353,70,-1,1760.43956043956,2.0007326007326,33.7963496324373
1743371566372,17:52:46.372,70,-1,1865.93406593407,2.0007326007326,33.7963496324373
1743371566392,17:52:46.392,70,-1,1942.85714285714,2.0021978021978,33.7963496324373
1743371566411,17:52:46.411,70,-1,1986.08058608059,2.003663003663,33.7963496324373
1743371566431,17:52:46.431,70,-1,2004.3956043956,2.003663003663,33.7963496324373
1743371566450,17:52:46.450,70,-1,2002.1978021978,2.00512820512821,33.7963496324373
1743371566470,17:52:46.470,70,-1,1990.47619047619,2.00512820512821,33.7963496324373
1743371566489,17:52:46.489,70,-1,1965.56776556777,2.00659340659341,33.7963496324373
1743371566509,17:52:46.509,70,-1,1939.92673992674,2.00659340659341,33.7963496324373
1743371566528,17:52:46.528,70,-1,1900.3663003663,2.00659340659341,33.7963496324373
1743371566548,17:52:46.548,70,-1,1848.35164835165,2.00805860805861,33.7963496324373
1743371566567,17:52:46.567,70,-1,1783.88278388278,2.00805860805861,33.7963496324373
1743371566587,17:52:46.587,70,-1,1726.73992673993,2.00805860805861,33.7963496324373
1743371566606,17:52:46.606,70,-1,1679.85347985348,2.00952380952381,33.7963496324373
1743371566626,17:52:46.626,70,-1,1637.36263736264,2.00805860805861,33.7963496324373
1743371566645,17:52:46.645,70,-1,1604.3956043956,2.00952380952381,33.7963496324373
1743371566665,17:52:46.665,70,-1,1597.0695970696,2.00952380952381,33.7963496324373
1743371566684,17:52:46.684,70,-1,1591.20879120879,2.01098901098901,33.7963496324373
1743371566704,17:52:46.704,70,-1,1575.09157509157,2.01098901098901,33.7963496324373
1743371566723,17:52:46.723,70,-1,1541.39194139194,2.01098901098901,33.7963496324373
1743371566743,17:52:46.743,70,-1,1504.7619047619,2.01098901098901,33.7963496324373
1743371566762,17:52:46.762,70,-1,1476.92307692308,2.01098901098901,33.7963496324373
1743371566782,17:52:46.782,65,-1,1446.88644688645,2.01245421245421,33.7963496324373
1743371566801,17:52:46.801,65,-1,1421.24542124542,2.01245421245421,33.7963496324373
1743371566821,17:52:46.821,65,-1,1402.1978021978,2.01245421245421,33.7963496324373
1743371566840,17:52:46.840,65,-1,1378.02197802198,2.01391941391941,33.7963496324373
1743371566860,17:52:46.860,65,-1,1350.18315018315,2.01245421245421,33.7963496324373
1743371566879,17:52:46.879,65,-1,1317.94871794872,2.01391941391941,33.7963496324373
1743371566899,17:52:46.899,65,-1,1292.30769230769,2.01391941391941,33.7963496324373
1743371566918,17:52:46.918,65,-1,1277.65567765568,2.01391941391941,33.7963496324373
1743371566938,17:52:46.938,65,-1,1265.93406593407,2.01391941391941,33.7963496324373
1743371566957,17:52:46.957,65,-1,1246.88644688645,2.01245421245421,33.7963496324373
1743371566977,17:52:46.977,65,-1,1230.03663003663,2.01391941391941,33.7963496324373
1743371566996,17:52:46.996,65,-1,1220.51282051282,2.01391941391941,33.7963496324373
1743371567016,17:52:47.016,65,-1,1224.90842490842,2.01391941391941,33.7963496324373
1743371567035,17:52:47.035,65,-1,1225.64102564103,2.01391941391941,33.7963496324373
1743371567055,17:52:47.055,65,-1,1224.17582417582,2.01684981684982,33.7963496324373
1743371567074,17:52:47.074,65,-1,1212.45421245421,2.01831501831502,33.7963496324373
1743371567094,17:52:47.094,65,-1,1198.5347985348,2.01684981684982,33.7963496324373
1743371567113,17:52:47.113,65,-1,1192.67399267399,2.01831501831502,33.7963496324373
1743371567133,17:52:47.133,65,-1,1224.90842490842,2.01831501831502,33.7963496324373
1743371567152,17:52:47.152,65,-1,1304.0293040293,2.01831501831502,33.7963496324373
1743371567172,17:52:47.172,65,-1,1427.10622710623,2.01831501831502,33.7963496324373
1743371567191,17:52:47.191,65,-1,1586.81318681319,2.01831501831502,33.7963496324373
1743371567211,17:52:47.211,65,-1,1747.25274725275,2.01831501831502,33.7963496324373
1743371567230,17:52:47.230,65,-1,1856.41025641026,2.01831501831502,33.7963496324373
1743371567250,17:52:47.250,65,-1,1925.27472527473,2.01831501831502,33.7963496324373
1743371567269,17:52:47.269,65,-1,1972.89377289377,2.01684981684982,33.7963496324373
1743371567289,17:52:47.289,65,-1,1970.69597069597,2.01684981684982,33.7963496324373
1743371567308,17:52:47.308,65,-1,1954.57875457875,2.01684981684982,33.7963496324373
1743371567328,17:52:47.328,65,-1,1927.47252747253,2.01684981684982,33.7963496324373
1743371567347,17:52:47.347,65,-1,1902.5641025641,2.01538461538462,33.7963496324373
1743371567367,17:52:47.367,65,-1,1870.32967032967,2.01538461538462,33.7963496324373
1743371567386,17:52:47.386,65,-1,1820.51282051282,2.01538461538462,33.7963496324373
1743371567406,17:52:47.406,65,-1,1758.24175824176,2.01538461538462,33.7963496324373
1743371567425,17:52:47.425,65,-1,1700.3663003663,2.01538461538462,33.7963496324373
1743371567445,17:52:47.445,65,-1,1650.54945054945,2.01538461538462,33.7963496324373
1743371567464,17:52:47.464,65,-1,1605.12820512821,2.01391941391941,33.7963496324373
1743371567484,17:52:47.484,65,-1,1584.61538461538,2.01538461538462,33.7963496324373
1743371567503,17:52:47.503,65,-1,1552.38095238095,2.01538461538462,33.7963496324373
1743371567523,17:52:47.523,65,-1,1519.41391941392,2.01391941391941,33.7963496324373
1743371567542,17:52:47.542,65,-1,1503.2967032967,2.01391941391941,33.7963496324373
1743371567562,17:52:47.562,65,-1,1498.1684981685,2.01391941391941,33.8113583307713
1743371567581,17:52:47.581,65,-1,1488.64468864469,2.01538461538462,33.8113583307713
1743371567601,17:52:47.601,65,-1,1455.67765567766,2.01391941391941,33.8113583307713
1743371567620,17:52:47.620,65,-1,1421.97802197802,2.01391941391941,33.8113583307713
1743371567640,17:52:47.640,65,-1,1390.47619047619,2.01245421245421,33.8113583307713
1743371567659,17:52:47.659,65,-1,1364.10256410256,2.01245421245421,33.8113583307713
1743371567679,17:52:47.679,65,-1,1320.14652014652,2.01245421245421,33.8113583307713
1743371567698,17:52:47.698,65,-1,1280.58608058608,2.01245421245421,33.8113583307713
1743371567718,17:52:47.718,65,-1,1243.22344322344,2.01245421245421,33.8113583307713
1743371567737,17:52:47.737,65,-1,1220.51282051282,2.01245421245421,33.8113583307713
1743371567757,17:52:47.757,63,-1,1216.84981684982,2.01245421245421,33.8113583307713
1743371567776,17:52:47.776,63,-1,1216.84981684982,2.01245421245421,33.8113583307713
1743371567796,17:52:47.796,63,-1,1197.8021978022,2.01245421245421,33.8113583307713
1743371567815,17:52:47.815,63,-1,1176.55677655678,2.01391941391941,33.8113583307713
1743371567835,17:52:47.835,63,-1,1165.56776556777,2.01391941391941,33.8113583307713
1743371567854,17:52:47.854,63,-1,1175.82417582418,2.01391941391941,33.8113583307713
1743371567874,17:52:47.874,63,-1,1174.35897435897,2.01391941391941,33.8113583307713
1743371567893,17:52:47.893,63,-1,1168.49816849817,2.01245421245421,33.8113583307713
1743371567913,17:52:47.913,63,-1,1167.03296703297,2.01245421245421,33.8113583307713
1743371567932,17:52:47.932,63,-1,1145.78754578755,2.01098901098901,33.8113583307713
1743371567952,17:52:47.952,63,-1,1120.87912087912,2.01245421245421,33.8113583307713
1743371567971,17:52:47.971,63,-1,1125.27472527473,2.01245421245421,33.8113583307713
1743371567991,17:52:47.991,63,-1,1140.65934065934,2.01245421245421,33.8113583307713
1743371568010,17:52:48.010,63,-1,1206.59340659341,2.01098901098901,33.8113583307713
1743371568030,17:52:48.030,63,-1,1309.15750915751,2.01245421245421,33.8113583307713
1743371568049,17:52:48.049,63,-1,1441.75824175824,2.01098901098901,33.8113583307713
1743371568069,17:52:48.069,63,-1,1578.75457875458,2.01098901098901,33.8113583307713
1743371568088,17:52:48.088,63,-1,1675.45787545788,2.01098901098901,33.8113583307713
1743371568108,17:52:48.108,63,-1,1723.80952380952,2.01098901098901,33.8113583307713
1743371568127,17:52:48.127,63,-1,1747.98534798535,2.01098901098901,33.8113583307713
1743371568147,17:52:48.147,63,-1,1763.36996336996,2.00952380952381,33.8113583307713
1743371568166,17:52:48.166,63,-1,1760.43956043956,2.00952380952381,33.8113583307713
1743371568186,17:52:48.186,63,-1,1756.04395604396,2.00952380952381,33.8113583307713
1743371568205,17:52:48.205,63,-1,1742.12454212454,2.00952380952381,33.8113583307713
1743371568225,17:52:48.225,63,-1,1704.0293040293,2.00805860805861,33.8113583307713
1743371568244,17:52:48.244,63,-1,1656.41025641026,2.00805860805861,33.8113583307713
1743371568264,17:52:48.264,63,-1,1600.7326007326,2.00659340659341,33.8113583307713
1743371568283,17:52:48.283,63,-1,1550.91575091575,2.00659340659341,33.8113583307713
1743371568303,17:52:48.303,63,-1,1515.01831501831,2.00659340659341,33.8113583307713
1743371568322,17:52:48.322,63,-1,1476.19047619048,2.00512820512821,33.8113583307713
1743371568342,17:52:48.342,63,-1,1448.35164835165,2.003663003663,33.8113583307713
1743371568361,17:52:48.361,63,-1,1435.16483516484,2.003663003663,33.8113583307713
1743371568381,17:52:48.381,63,-1,1421.24542124542,2.003663003663,33.8113583307713
1743371568400,17:52:48.400,63,-1,1409.52380952381,2.0021978021978,33.8113583307713
1743371568420,17:52:48.420,63,-1,1390.47619047619,2.003663003663,33.8113583307713
1743371568439,17:52:48.439,63,-1,1358.97435897436,2.0021978021978,33.8113583307713
1743371568459,17:52:48.459,63,-1,1326.00732600733,2.0021978021978,33.8113583307713
1743371568478,17:52:48.478,63,-1,1285.71428571429,2.0021978021978,33.8113583307713
1743371568498,17:52:48.498,63,-1,1246.88644688645,2.0021978021978,33.8113583307713
1743371568517,17:52:48.517,63,-1,1227.10622710623,2.0021978021978,33.8113583307713
1743371568537,17:52:48.537,63,-1,1224.17582417582,2.0021978021978,33.8113583307713
1743371568556,17:52:48.556,63,-1,1221.24542124542,2.0021978021978,33.7963496324373
1743371568576,17:52:48.576,63,-1,1208.79120879121,2.0007326007326,33.7963496324373
1743371568595,17:52:48.595,63,-1,1191.94139194139,2.0007326007326,33.7963496324373
1743371568615,17:52:48.615,63,-1,1176.55677655678,2.0007326007326,33.7963496324373
1743371568634,17:52:48.634,63,-1,1170.69597069597,2.0007326007326,33.7963496324373
1743371568654,17:52:48.654,63,-1,1167.03296703297,1.9992673992674,33.7963496324373
1743371568673,17:52:48.673,62,-1,1156.04395604396,1.9978021978022,33.7963496324373
1743371568693,17:52:48.693,62,-1,1149.45054945055,1.9978021978022,33.7963496324373
1743371568712,17:52:48.712,62,-1,1146.52014652015,1.9978021978022,33.7963496324373
1743371568732,17:52:48.732,62,-1,1136.99633699634,1.996336996337,33.7963496324373
1743371568751,17:52:48.751,62,-1,1118.68131868132,1.996336996337,33.7963496324373
1743371568771,17:52:48.771,62,-1,1099.6336996337,1.99487179487179,33.7963496324373
1743371568790,17:52:48.790,62,-1,1092.30769230769,1.99487179487179,33.7963496324373
1743371568810,17:52:48.810,62,-1,1091.57509157509,1.99487179487179,33.7963496324373
1743371568829,17:52:48.829,62,-1,1107.69230769231,1.99487179487179,33.7963496324373
1743371568849,17:52:48.849,62,-1,1154.57875457875,1.99487179487179,33.7963496324373
1743371568868,17:52:48.868,62,-1,1232.96703296703,1.99340659340659,33.7963496324373
1743371568888,17:52:48.888,62,-1,1331.86813186813,1.99340659340659,33.7963496324373
1743371568907,17:52:48.907,62,-1,1415.38461538462,1.99194139194139,33.7963496324373
1743371568927,17:52:48.927,62,-1,1477.65567765568,1.99194139194139,33.7963496324373
1743371568946,17:52:48.946,62,-1,1515.01831501831,1.99194139194139,33.7963496324373
1743371568966,17:52:48.966,62,-1,1540.65934065934,1.99194139194139,33.7963496324373
1743371568985,17:52:48.985,62,-1,1574.35897435897,1.99194139194139,33.7963496324373
1743371569005,17:52:49.005,62,-1,1593.40659340659,1.99194139194139,33.7963496324373
1743371569024,17:52:49.024,62,-1,1593.40659340659,1.99194139194139,33.7963496324373
1743371569044,17:52:49.044,62,-1,1588.27838827839,1.99047619047619,33.7963496324373
1743371569063,17:52:49.063,62,-1,1578.02197802198,1.99047619047619,33.7963496324373
1743371569083,17:52:49.083,62,-1,1551.64835164835,1.98901098901099,33.7963496324373
1743371569102,17:52:49.102,62,-1,1503.2967032967,1.98901098901099,33.7963496324373
1743371569122,17:52:49.122,62,-1,1460.80586080586,1.98901098901099,33.7963496324373
1743371569141,17:52:49.141,62,-1,1432.96703296703,1.98901098901099,33.7963496324373
1743371569161,17:52:49.161,62,-1,1397.8021978022,1.98901098901099,33.7963496324373
1743371569180,17:52:49.180,62,-1,1359.70695970696,1.98754578754579,33.7963496324373
1743371569200,17:52:49.200,62,-1,1347.98534798535,1.98754578754579,33.7963496324373
1743371569219,17:52:49.219,62,-1,1342.85714285714,1.98608058608059,33.7963496324373
1743371569239,17:52:49.239,62,-1,1326.73992673993,1.98608058608059,33.7963496324373
1743371569258,17:52:49.258,62,-1,1304.0293040293,1.98608058608059,33.7963496324373
1743371569278,17:52:49.278,62,-1,1291.57509157509,1.98608058608059,33.7963496324373
1743371569297,17:52:49.297,62,-1,1276.92307692308,1.98461538461538,33.7963496324373
1743371569317,17:52:49.317,62,-1,1268.86446886447,1.98461538461538,33.7963496324373
1743371569336,17:52:49.336,62,-1,1254.94505494505,1.98315018315018,33.7963496324373
1743371569356,17:52:49.356,62,-1,1240.29304029304,1.98315018315018,33.7963496324373
1743371569375,17:52:49.375,62,-1,1234.43223443223,1.98168498168498,33.7963496324373
1743371569395,17:52:49.395,62,-1,1226.37362637363,1.98168498168498,33.7963496324373
1743371569414,17:52:49.414,62,-1,1211.72161172161,1.98168498168498,33.7963496324373
1743371569434,17:52:49.434,62,-1,1200.7326007326,1.98168498168498,33.7963496324373
1743371569453,17:52:49.453,62,-1,1187.54578754579,1.98021978021978,33.7963496324373
1743371569473,17:52:49.473,62,-1,1164.10256410256,1.98021978021978,33.7963496324373
1743371569492,17:52:49.492,62,-1,1157.50915750916,1.98021978021978,33.7963496324373
1743371569512,17:52:49.512,65,-1,1152.38095238095,1.98021978021978,33.7963496324373
1743371569531,17:52:49.531,65,-1,1143.58974358974,1.98021978021978,33.7963496324373
1743371569551,17:52:49.551,65,-1,1114.28571428571,1.97875457875458,33.7963496324373
1743371569570,17:52:49.570,65,-1,1085.71428571429,1.97875457875458,33.7963496324373
1743371569590,17:52:49.590,65,-1,1071.79487179487,1.97875457875458,33.7963496324373
1743371569609,17:52:49.609,65,-1,1085.71428571429,1.97875457875458,33.7963496324373
1743371569629,17:52:49.629,65,-1,1127.47252747253,1.97875457875458,33.7963496324373
1743371569648,17:52:49.648,65,-1,1191.94139194139,1.97875457875458,33.7963496324373
1743371569668,17:52:49.668,65,-1,1282.78388278388,1.97875457875458,33.7963496324373
1743371569687,17:52:49.687,65,-1,1369.96336996337,1.97728937728938,33.7963496324373
1743371569707,17:52:49.707,65,-1,1431.50183150183,1.97728937728938,33.7963496324373
1743371569726,17:52:49.726,65,-1,1457.87545787546,1.97728937728938,33.7963496324373
1743371569746,17:52:49.746,65,-1,1457.14285714286,1.97728937728938,33.7963496324373
1743371569765,17:52:49.765,65,-1,1457.87545787546,1.97728937728938,33.7963496324373
1743371569785,17:52:49.785,65,-1,1471.79487179487,1.97728937728938,33.7963496324373
1743371569804,17:52:49.804,65,-1,1498.1684981685,1.97582417582418,33.7963496324373
1743371569824,17:52:49.824,65,-1,1507.69230769231,1.97582417582418,33.7963496324373
1743371569843,17:52:49.843,65,-1,1493.04029304029,1.97582417582418,33.7963496324373
1743371569863,17:52:49.863,65,-1,1464.46886446886,1.97582417582418,33.7963496324373
1743371569882,17:52:49.882,65,-1,1428.57142857143,1.97435897435897,33.7963496324373
1743371569902,17:52:49.902,65,-1,1384.61538461538,1.97435897435897,33.7963496324373
1743371569921,17:52:49.921,65,-1,1345.05494505494,1.97435897435897,33.7963496324373
1743371569941,17:52:49.941,65,-1,1324.54212454212,1.97435897435897,33.7963496324373
1743371569960,17:52:49.960,65,-1,1322.34432234432,1.97435897435897,33.7963496324373
1743371569980,17:52:49.980,65,-1,1320.14652014652,1.97289377289377,33.7963496324373
1743371569999,17:52:49.999,65,-1,1309.89010989011,1.97289377289377,33.7963496324373
1743371570019,17:52:50.019,65,-1,1307.69230769231,1.97289377289377,33.7963496324373
1743371570038,17:52:50.038,65,-1,1304.0293040293,1.97289377289377,33.7963496324373
1743371570058,17:52:50.058,65,-1,1292.30769230769,1.97289377289377,33.7963496324373
1743371570077,17:52:50.077,65,-1,1276.19047619048,1.97142857142857,33.7963496324373
1743371570097,17:52:50.097,65,-1,1256.41025641026,1.97142857142857,33.7963496324373
1743371570116,17:52:50.116,65,-1,1249.81684981685,1.97142857142857,33.7963496324373
1743371570136,17:52:50.136,65,-1,1231.50183150183,1.97142857142857,33.7963496324373
1743371570155,17:52:50.155,65,-1,1218.31501831502,1.96996336996337,33.7963496324373
1743371570175,17:52:50.175,65,-1,1211.72161172161,1.97142857142857,33.7963496324373
1743371570194,17:52:50.194,65,-1,1190.47619047619,1.96996336996337,33.7963496324373
1743371570214,17:52:50.214,65,-1,1167.76556776557,1.96996336996337,33.7963496324373
1743371570233,17:52:50.233,65,-1,1158.24175824176,1.96996336996337,33.7963496324373
1743371570253,17:52:50.253,65,-1,1134.79853479853,1.96849816849817,33.7963496324373
1743371570272,17:52:50.272,65,-1,1120.87912087912,1.96996336996337,33.7963496324373
1743371570292,17:52:50.292,65,-1,1117.21611721612,1.96849816849817,33.7963496324373
1743371570311,17:52:50.311,65,-1,1117.21611721612,1.96849816849817,33.7963496324373
1743371570331,17:52:50.331,65,-1,1128.93772893773,1.96849816849817,33.7963496324373
1743371570350,17:52:50.350,65,-1,1139.19413919414,1.96703296703297,33.7963496324373
1743371570370,17:52:50.370,72,-1,1147.25274725275,1.96849816849817,33.7963496324373
1743371570389,17:52:50.389,72,-1,1154.57875457875,1.96703296703297,33.7963496324373
1743371570409,17:52:50.409,72,-1,1158.97435897436,1.96703296703297,33.7963496324373
1743371570428,17:52:50.428,72,-1,1164.83516483516,1.96703296703297,33.7963496324373
1743371570448,17:52:50.448,72,-1,1172.89377289377,1.96703296703297,33.7963496324373
1743371570467,17:52:50.467,72,-1,1179.48717948718,1.96556776556777,33.7963496324373
1743371570487,17:52:50.487,72,-1,1191.94139194139,1.96556776556777,33.7963496324373
1743371570506,17:52:50.506,72,-1,1227.10622710623,1.96556776556777,33.7963496324373
1743371570526,17:52:50.526,72,-1,1270.32967032967,1.96556776556777,33.7963496324373
1743371570545,17:52:50.545,72,-1,1320.87912087912,1.96556776556777,33.8063554371474
1743371570565,17:52:50.565,72,-1,1357.50915750916,1.96556776556777,33.8063554371474
1743371570584,17:52:50.584,72,-1,1391.94139194139,1.96556776556777,33.8063554371474
1743371570604,17:52:50.604,72,-1,1411.72161172161,1.96556776556777,33.8063554371474
1743371570623,17:52:50.623,72,-1,1418.31501831502,1.96556776556777,33.8063554371474
1743371570643,17:52:50.643,72,-1,1419.78021978022,1.96556776556777,33.8063554371474
1743371570662,17:52:50.662,72,-1,1429.30402930403,1.96556776556777,33.8063554371474
1743371570682,17:52:50.682,72,-1,1432.96703296703,1.96556776556777,33.8063554371474
1743371570701,17:52:50.701,72,-1,1424.90842490842,1.96410256410256,33.8063554371474
1743371570721,17:52:50.721,72,-1,1398.5347985348,1.96410256410256,33.8063554371474
1743371570740,17:52:50.740,72,-1,1369.96336996337,1.96410256410256,33.8063554371474
1743371570760,17:52:50.760,72,-1,1339.19413919414,1.96556776556777,33.8063554371474
1743371570779,17:52:50.779,72,-1,1308.42490842491,1.96410256410256,33.8063554371474
1743371570799,17:52:50.799,72,-1,1280.58608058608,1.96410256410256,33.8063554371474
1743371570818,17:52:50.818,72,-1,1267.39926739927,1.96410256410256,33.8063554371474
1743371570838,17:52:50.838,72,-1,1259.34065934066,1.96410256410256,33.8063554371474
1743371570857,17:52:50.857,72,-1,1256.41025641026,1.96410256410256,33.8063554371474
1743371570877,17:52:50.877,72,-1,1257.14285714286,1.96410256410256,33.8063554371474
1743371570896,17:52:50.896,72,-1,1259.34065934066,1.96410256410256,33.8063554371474
1743371570916,17:52:50.916,72,-1,1256.41025641026,1.96263736263736,33.8063554371474
1743371570935,17:52:50.935,72,-1,1243.22344322344,1.96410256410256,33.8063554371474
1743371570955,17:52:50.955,72,-1,1243.22344322344,1.96263736263736,33.8063554371474
1743371570974,17:52:50.974,72,-1,1228.57142857143,1.96263736263736,33.8063554371474
1743371570994,17:52:50.994,72,-1,1210.98901098901,1.96263736263736,33.8063554371474
1743371571013,17:52:51.013,72,-1,1201.4652014652,1.96263736263736,33.8063554371474
1743371571033,17:52:51.033,72,-1,1188.27838827839,1.96263736263736,33.8063554371474
1743371571052,17:52:51.052,72,-1,1175.09157509158,1.96263736263736,33.8063554371474
1743371571072,17:52:51.072,72,-1,1164.83516483516,1.96263736263736,33.8063554371474
1743371571091,17:52:51.091,72,-1,1164.10256410256,1.96263736263736,33.8063554371474
1743371571111,17:52:51.111,72,-1,1171.42857142857,1.96263736263736,33.8063554371474
1743371571130,17:52:51.130,72,-1,1186.81318681319,1.96263736263736,33.8063554371474
1743371571150,17:52:51.150,72,-1,1192.67399267399,1.96263736263736,33.8063554371474
1743371571169,17:52:51.169,72,-1,1181.68498168498,1.96263736263736,33.8063554371474
1743371571189,17:52:51.189,72,-1,1165.56776556777,1.96263736263736,33.8063554371474
1743371571208,17:52:51.208,70,-1,1144.32234432234,1.96263736263736,33.8063554371474
1743371571228,17:52:51.228,70,-1,1128.93772893773,1.96263736263736,33.8063554371474
1743371571247,17:52:51.247,70,-1,1120.87912087912,1.96263736263736,33.8063554371474
1743371571267,17:52:51.267,70,-1,1099.6336996337,1.96263736263736,33.8063554371474
1743371571286,17:52:51.286,70,-1,1095.2380952381,1.96263736263736,33.8063554371474
1743371571306,17:52:51.306,70,-1,1108.42490842491,1.96117216117216,33.8063554371474
1743371571325,17:52:51.325,70,-1,1106.95970695971,1.96117216117216,33.8063554371474
1743371571345,17:52:51.345,70,-1,1103.2967032967,1.96117216117216,33.8063554371474
1743371571364,17:52:51.364,70,-1,1112.82051282051,1.96117216117216,33.8063554371474
1743371571384,17:52:51.384,70,-1,1102.5641025641,1.96117216117216,33.8063554371474
1743371571403,17:52:51.403,70,-1,1095.9706959707,1.96117216117216,33.8063554371474
1743371571423,17:52:51.423,70,-1,1143.58974358974,1.96117216117216,33.8063554371474
1743371571442,17:52:51.442,70,-1,1200,1.96117216117216,33.8063554371474
1743371571462,17:52:51.462,70,-1,1261.53846153846,1.96117216117216,33.8063554371474
1743371571481,17:52:51.481,70,-1,1326.73992673993,1.96117216117216,33.8063554371474
1743371571501,17:52:51.501,70,-1,1381.68498168498,1.96117216117216,33.8063554371474
1743371571520,17:52:51.520,70,-1,1415.38461538462,1.96117216117216,33.8063554371474
1743371571540,17:52:51.540,70,-1,1434.43223443223,1.95970695970696,33.8063554371474
1743371571559,17:52:51.559,70,-1,1452.01465201465,1.95970695970696,33.8063554371474
1743371571579,17:52:51.579,70,-1,1473.99267399267,1.96117216117216,33.8063554371474
1743371571598,17:52:51.598,70,-1,1489.37728937729,1.95970695970696,33.8063554371474
1743371571618,17:52:51.618,70,-1,1495.9706959707,1.95970695970696,33.8063554371474
1743371571637,17:52:51.637,70,-1,1508.42490842491,1.95970695970696,33.8063554371474
1743371571657,17:52:51.657,70,-1,1513.55311355311,1.95970695970696,33.8063554371474
1743371571676,17:52:51.676,70,-1,1493.04029304029,1.95970695970696,33.8063554371474
1743371571696,17:52:51.696,70,-1,1455.67765567766,1.95970695970696,33.8063554371474
1743371571715,17:52:51.715,70,-1,1435.89743589744,1.95970695970696,33.8063554371474
1743371571735,17:52:51.735,70,-1,1435.89743589744,1.95970695970696,33.8063554371474
1743371571754,17:52:51.754,70,-1,1424.90842490842,1.95824175824176,33.8063554371474
1743371571774,17:52:51.774,70,-1,1413.18681318681,1.95970695970696,33.8063554371474
1743371571793,17:52:51.793,70,-1,1388.27838827839,1.95970695970696,33.8063554371474
1743371571813,17:52:51.813,70,-1,1375.09157509157,1.95970695970696,33.8063554371474
1743371571832,17:52:51.832,70,-1,1368.49816849817,1.95970695970696,33.8063554371474
1743371571852,17:52:51.852,70,-1,1370.69597069597,1.95824175824176,33.8063554371474
1743371571871,17:52:51.871,70,-1,1360.43956043956,1.95824175824176,33.8063554371474
1743371571891,17:52:51.891,70,-1,1358.24175824176,1.95970695970696,33.8063554371474
1743371571910,17:52:51.910,70,-1,1346.52014652015,1.95824175824176,33.8063554371474
1743371571930,17:52:51.930,70,-1,1328.20512820513,1.95824175824176,33.8063554371474
1743371571949,17:52:51.949,70,-1,1309.89010989011,1.95970695970696,33.8063554371474
1743371571969,17:52:51.969,70,-1,1294.50549450549,1.95970695970696,33.8063554371474
1743371571988,17:52:51.988,70,-1,1271.79487179487,1.95970695970696,33.8063554371474
1743371572008,17:52:52.008,70,-1,1254.94505494505,1.95970695970696,33.8063554371474
1743371572027,17:52:52.027,70,-1,1240.29304029304,1.95970695970696,33.8063554371474
1743371572047,17:52:52.047,70,-1,1228.57142857143,1.95970695970696,33.8063554371474
1743371572066,17:52:52.066,70,-1,1221.97802197802,1.95970695970696,33.8063554371474
1743371572086,17:52:52.086,72,-1,1232.96703296703,1.95970695970696,33.8063554371474
1743371572105,17:52:52.105,72,-1,1239.56043956044,1.95970695970696,33.8063554371474
1743371572125,17:52:52.125,72,-1,1233.69963369963,1.95970695970696,33.8063554371474
1743371572144,17:52:52.144,72,-1,1213.91941391941,1.95970695970696,33.8063554371474
1743371572164,17:52:52.164,72,-1,1218.31501831502,1.95970695970696,33.8063554371474
1743371572183,17:52:52.183,72,-1,1224.90842490842,1.95970695970696,33.8063554371474
1743371572203,17:52:52.203,72,-1,1210.25641025641,1.95970695970696,33.8063554371474
1743371572222,17:52:52.222,72,-1,1189.74358974359,1.95970695970696,33.8063554371474
1743371572242,17:52:52.242,72,-1,1169.96336996337,1.95970695970696,33.8063554371474
1743371572261,17:52:52.261,72,-1,1169.96336996337,1.95970695970696,33.8063554371474
1743371572281,17:52:52.281,72,-1,1180.21978021978,1.95970695970696,33.8063554371474
1743371572300,17:52:52.300,72,-1,1175.82417582418,1.95824175824176,33.8063554371474
1743371572320,17:52:52.320,72,-1,1162.63736263736,1.95824175824176,33.8063554371474
1743371572339,17:52:52.339,72,-1,1194.13919413919,1.95824175824176,33.8063554371474
1743371572359,17:52:52.359,72,-1,1265.20146520147,1.95824175824176,33.8063554371474
1743371572378,17:52:52.378,72,-1,1364.83516483516,1.95824175824176,33.8063554371474
1743371572398,17:52:52.398,72,-1,1467.39926739927,1.95824175824176,33.8063554371474
1743371572417,17:52:52.417,72,-1,1557.50915750916,1.95824175824176,33.8063554371474
1743371572437,17:52:52.437,72,-1,1624.17582417582,1.95677655677656,33.8063554371474
1743371572456,17:52:52.456,72,-1,1667.39926739927,1.95824175824176,33.8063554371474
1743371572476,17:52:52.476,72,-1,1704.0293040293,1.95824175824176,33.8063554371474
1743371572495,17:52:52.495,72,-1,1728.93772893773,1.95824175824176,33.8063554371474
1743371572515,17:52:52.515,72,-1,1739.92673992674,1.95824175824176,33.8063554371474
1743371572534,17:52:52.534,72,-1,1761.90476190476,1.95824175824176,33.8063554371474
1743371572554,17:52:52.554,72,-1,1765.56776556777,1.95824175824176,33.8063554371474
1743371572573,17:52:52.573,72,-1,1751.64835164835,1.95824175824176,33.8063554371474
1743371572593,17:52:52.593,72,-1,1717.94871794872,1.95824175824176,33.8063554371474
1743371572612,17:52:52.612,72,-1,1674.72527472527,1.95824175824176,33.8063554371474
1743371572632,17:52:52.632,72,-1,1639.56043956044,1.95824175824176,33.8063554371474
1743371572651,17:52:52.651,72,-1,1623.44322344322,1.95677655677656,33.8063554371474
1743371572671,17:52:52.671,72,-1,1615.38461538462,1.95677655677656,33.8063554371474
1743371572690,17:52:52.690,72,-1,1610.98901098901,1.95677655677656,33.8063554371474
1743371572710,17:52:52.710,72,-1,1600.7326007326,1.95677655677656,33.8063554371474
1743371572729,17:52:52.729,72,-1,1591.94139194139,1.95677655677656,33.8063554371474
1743371572749,17:52:52.749,72,-1,1578.02197802198,1.95677655677656,33.8063554371474
1743371572768,17:52:52.768,72,-1,1550.18315018315,1.95677655677656,33.8063554371474
1743371572788,17:52:52.788,72,-1,1525.27472527473,1.95677655677656,33.8063554371474
1743371572807,17:52:52.807,72,-1,1499.6336996337,1.95677655677656,33.8063554371474
1743371572827,17:52:52.827,72,-1,1475.45787545788,1.95677655677656,33.8063554371474
1743371572846,17:52:52.846,72,-1,1453.47985347985,1.95677655677656,33.8063554371474
1743371572866,17:52:52.866,72,-1,1422.71062271062,1.95531135531136,33.8063554371474
1743371572885,17:52:52.885,72,-1,1402.1978021978,1.95384615384615,33.8063554371474
1743371572905,17:52:52.905,72,-1,1391.20879120879,1.95384615384615,33.8063554371474
1743371572924,17:52:52.924,72,-1,1379.48717948718,1.95384615384615,33.8063554371474
1743371572944,17:52:52.944,68,-1,1357.50915750916,1.95384615384615,33.8063554371474
1743371572963,17:52:52.963,68,-1,1337.72893772894,1.95384615384615,33.8063554371474
1743371572983,17:52:52.983,68,-1,1331.13553113553,1.95384615384615,33.8063554371474
1743371573002,17:52:53.002,68,-1,1320.87912087912,1.95384615384615,33.8063554371474
1743371573022,17:52:53.022,68,-1,1308.42490842491,1.95384615384615,33.8063554371474
1743371573041,17:52:53.041,68,-1,1301.0989010989,1.95384615384615,33.8063554371474
1743371573061,17:52:53.061,68,-1,1296.7032967033,1.95384615384615,33.8063554371474
1743371573080,17:52:53.080,68,-1,1287.17948717949,1.95384615384615,33.8063554371474
1743371573100,17:52:53.100,68,-1,1276.92307692308,1.95384615384615,33.8063554371474
1743371573119,17:52:53.119,68,-1,1276.92307692308,1.95384615384615,33.8063554371474
1743371573139,17:52:53.139,68,-1,1275.45787545788,1.95384615384615,33.8063554371474
1743371573158,17:52:53.158,68,-1,1260.07326007326,1.95384615384615,33.8063554371474
1743371573178,17:52:53.178,68,-1,1239.56043956044,1.95384615384615,33.8063554371474
1743371573197,17:52:53.197,68,-1,1233.69963369963,1.95384615384615,33.8063554371474
1743371573217,17:52:53.217,68,-1,1262.27106227106,1.95384615384615,33.8063554371474
1743371573236,17:52:53.236,68,-1,1353.84615384615,1.95238095238095,33.8063554371474
1743371573256,17:52:53.256,68,-1,1485.71428571429,1.95384615384615,33.8063554371474
1743371573275,17:52:53.275,68,-1,1630.03663003663,1.95384615384615,33.8063554371474
1743371573295,17:52:53.295,68,-1,1753.11355311355,1.95384615384615,33.8063554371474
1743371573314,17:52:53.314,68,-1,1844.68864468864,1.95384615384615,33.8063554371474
1743371573334,17:52:53.334,68,-1,1889.37728937729,1.95384615384615,33.8063554371474
1743371573354,17:52:53.353,68,-1,1918.68131868132,1.95384615384615,33.8063554371474
1743371573373,17:52:53.373,68,-1,1954.57875457875,1.95384615384615,33.8063554371474
1743371573393,17:52:53.392,68,-1,1988.27838827839,1.95238095238095,33.8063554371474
1743371573412,17:52:53.412,68,-1,2007.32600732601,1.95238095238095,33.8063554371474
1743371573432,17:52:53.431,68,-1,2007.32600732601,1.95238095238095,33.8063554371474
1743371573451,17:52:53.451,68,-1,1998.5347985348,1.95238095238095,33.8063554371474
1743371573471,17:52:53.470,68,-1,1986.81318681319,1.95238095238095,33.8063554371474
1743371573490,17:52:53.490,68,-1,1934.06593406593,1.95238095238095,33.8063554371474
1743371573510,17:52:53.510,68,-1,1864.46886446886,1.95238095238095,33.8063554371474
1743371573529,17:52:53.529,68,-1,1809.52380952381,1.95238095238095,33.8063554371474
1743371573549,17:52:53.549,68,-1,1785.34798534799,1.95238095238095,33.8063554371474
1743371573568,17:52:53.568,68,-1,1770.69597069597,1.95238095238095,33.8063554371474
1743371573588,17:52:53.588,68,-1,1753.84615384615,1.95238095238095,33.8063554371474
1743371573607,17:52:53.607,68,-1,1742.85714285714,1.95238095238095,33.8063554371474
1743371573627,17:52:53.627,68,-1,1718.68131868132,1.95238095238095,33.8063554371474
1743371573646,17:52:53.646,68,-1,1679.85347985348,1.95238095238095,33.8063554371474
1743371573666,17:52:53.666,68,-1,1645.42124542125,1.95238095238095,33.8063554371474
1743371573685,17:52:53.685,68,-1,1607.32600732601,1.95091575091575,33.8063554371474
1743371573705,17:52:53.705,70,-1,1569.23076923077,1.95091575091575,33.8063554371474
1743371573724,17:52:53.724,70,-1,1542.85714285714,1.95091575091575,33.8063554371474
1743371573744,17:52:53.744,70,-1,1506.22710622711,1.95091575091575,33.8063554371474
1743371573763,17:52:53.763,70,-1,1454.94505494505,1.95091575091575,33.8063554371474
1743371573783,17:52:53.783,70,-1,1421.97802197802,1.95091575091575,33.8063554371474
1743371573802,17:52:53.802,70,-1,1415.38461538462,1.94945054945055,33.8063554371474
1743371573822,17:52:53.822,70,-1,1412.45421245421,1.94945054945055,33.8063554371474
1743371573841,17:52:53.841,70,-1,1395.6043956044,1.94945054945055,33.8063554371474
1743371573861,17:52:53.861,70,-1,1369.96336996337,1.95091575091575,33.8063554371474
1743371573880,17:52:53.880,70,-1,1348.71794871795,1.94945054945055,33.8063554371474
1743371573900,17:52:53.900,70,-1,1326.73992673993,1.94945054945055,33.8063554371474
1743371573919,17:52:53.919,70,-1,1315.01831501831,1.94945054945055,33.8063554371474
1743371573939,17:52:53.939,70,-1,1301.0989010989,1.94945054945055,33.8063554371474
1743371573958,17:52:53.958,70,-1,1291.57509157509,1.94945054945055,33.8063554371474
1743371573978,17:52:53.978,70,-1,1279.12087912088,1.94945054945055,33.8063554371474
1743371573997,17:52:53.997,70,-1,1267.39926739927,1.94945054945055,33.8063554371474
1743371574017,17:52:54.017,70,-1,1253.47985347985,1.94945054945055,33.8063554371474
1743371574036,17:52:54.036,70,-1,1246.15384615385,1.94798534798535,33.8063554371474
1743371574056,17:52:54.056,70,-1,1249.81684981685,1.94798534798535,33.8063554371474
1743371574075,17:52:54.075,70,-1,1246.15384615385,1.94798534798535,33.8063554371474
1743371574095,17:52:54.095,70,-1,1229.30402930403,1.94798534798535,33.8063554371474
1743371574114,17:52:54.114,70,-1,1221.97802197802,1.94798534798535,33.8063554371474
1743371574134,17:52:54.134,70,-1,1215.38461538462,1.94798534798535,33.8063554371474
1743371574153,17:52:54.153,70,-1,1214.65201465201,1.94798534798535,33.8063554371474
1743371574173,17:52:54.173,70,-1,1256.41025641026,1.94798534798535,33.8063554371474
1743371574192,17:52:54.192,70,-1,1375.09157509157,1.94798534798535,33.8063554371474
1743371574212,17:52:54.212,70,-1,1555.31135531136,1.94798534798535,33.8063554371474
1743371574231,17:52:54.231,70,-1,1739.19413919414,1.94798534798535,33.8063554371474
1743371574251,17:52:54.251,70,-1,1870.32967032967,1.94798534798535,33.8063554371474
1743371574270,17:52:54.270,70,-1,1961.17216117216,1.94798534798535,33.8063554371474
1743371574290,17:52:54.290,70,-1,2010.25641025641,1.94798534798535,33.8063554371474
1743371574309,17:52:54.309,70,-1,2023.44322344322,1.94798534798535,33.8063554371474
1743371574329,17:52:54.329,70,-1,2021.24542124542,1.94798534798535,33.8063554371474
1743371574348,17:52:54.348,70,-1,2019.04761904762,1.94798534798535,33.8063554371474
1743371574368,17:52:54.368,70,-1,2023.44322344322,1.94798534798535,33.8063554371474
1743371574387,17:52:54.387,70,-1,2011.72161172161,1.94652014652015,33.8063554371474
1743371574407,17:52:54.407,70,-1,1987.54578754579,1.94652014652015,33.8063554371474
1743371574426,17:52:54.426,70,-1,1951.64835164835,1.94652014652015,33.8063554371474
1743371574446,17:52:54.446,70,-1,1895.2380952381,1.94652014652015,33.8063554371474
1743371574465,17:52:54.465,70,-1,1829.30402930403,1.94652014652015,33.8063554371474
1743371574485,17:52:54.485,70,-1,1760.43956043956,1.94652014652015,33.8063554371474
1743371574504,17:52:54.504,70,-1,1721.61172161172,1.94652014652015,33.8063554371474
1743371574524,17:52:54.524,70,-1,1697.4358974359,1.94652014652015,33.8013525377028
1743371574543,17:52:54.543,70,-1,1672.52747252747,1.94652014652015,33.8013525377028
1743371574563,17:52:54.563,70,-1,1652.74725274725,1.94652014652015,33.8013525377028
1743371574582,17:52:54.582,79,-1,1631.50183150183,1.94652014652015,33.8013525377028
1743371574602,17:52:54.602,79,-1,1610.98901098901,1.94652014652015,33.8013525377028
1743371574621,17:52:54.621,79,-1,1590.47619047619,1.94652014652015,33.8013525377028
1743371574641,17:52:54.641,79,-1,1553.11355311355,1.94652014652015,33.8013525377028
1743371574660,17:52:54.660,79,-1,1518.68131868132,1.94652014652015,33.8013525377028
1743371574680,17:52:54.680,79,-1,1482.05128205128,1.94652014652015,33.8013525377028
1743371574699,17:52:54.699,79,-1,1436.63003663004,1.94652014652015,33.8013525377028
1743371574719,17:52:54.719,79,-1,1377.28937728938,1.94505494505494,33.8013525377028
1743371574738,17:52:54.738,79,-1,1330.40293040293,1.94505494505494,33.8013525377028
1743371574758,17:52:54.758,79,-1,1304.0293040293,1.94652014652015,33.8013525377028
1743371574777,17:52:54.777,79,-1,1290.10989010989,1.94505494505494,33.8013525377028
1743371574797,17:52:54.797,79,-1,1272.52747252747,1.94505494505494,33.8013525377028
1743371574816,17:52:54.816,79,-1,1268.86446886447,1.94505494505494,33.8013525377028
1743371574836,17:52:54.836,79,-1,1259.34065934066,1.94505494505494,33.8013525377028
1743371574855,17:52:54.855,79,-1,1241.75824175824,1.94358974358974,33.8013525377028
1743371574875,17:52:54.875,79,-1,1238.09523809524,1.94358974358974,33.8013525377028
1743371574894,17:52:54.894,79,-1,1224.17582417582,1.94505494505494,33.8013525377028
1743371574914,17:52:54.914,79,-1,1203.663003663,1.94505494505494,33.8013525377028
1743371574933,17:52:54.933,79,-1,1171.42857142857,1.94505494505494,33.8013525377028
1743371574953,17:52:54.953,79,-1,1145.78754578755,1.94505494505494,33.8013525377028
1743371574972,17:52:54.972,79,-1,1139.19413919414,1.94505494505494,33.8013525377028
1743371574992,17:52:54.992,79,-1,1137.72893772894,1.94652014652015,33.8013525377028
1743371575011,17:52:55.011,79,-1,1145.78754578755,1.94505494505494,33.8013525377028
1743371575031,17:52:55.031,79,-1,1155.31135531136,1.94652014652015,33.8013525377028
1743371575050,17:52:55.050,79,-1,1147.25274725275,1.94652014652015,33.8013525377028
1743371575070,17:52:55.070,79,-1,1127.47252747253,1.94505494505494,33.8013525377028
1743371575089,17:52:55.089,79,-1,1107.69230769231,1.94505494505494,33.8013525377028
1743371575109,17:52:55.109,79,-1,1101.8315018315,1.94652014652015,33.8013525377028
1743371575128,17:52:55.128,79,-1,1137.72893772894,1.94505494505494,33.8013525377028
1743371575148,17:52:55.148,79,-1,1222.71062271062,1.94505494505494,33.8013525377028
1743371575167,17:52:55.167,79,-1,1347.25274725275,1.94652014652015,33.8013525377028
1743371575187,17:52:55.187,79,-1,1484.98168498168,1.94652014652015,33.8013525377028
1743371575206,17:52:55.206,79,-1,1619.78021978022,1.94652014652015,33.8013525377028
1743371575226,17:52:55.226,79,-1,1736.99633699634,1.94652014652015,33.8013525377028
1743371575245,17:52:55.245,79,-1,1831.50183150183,1.94652014652015,33.8013525377028
1743371575265,17:52:55.265,79,-1,1868.86446886447,1.94652014652015,33.8013525377028
1743371575284,17:52:55.284,79,-1,1860.80586080586,1.94652014652015,33.8013525377028
1743371575304,17:52:55.304,79,-1,1860.07326007326,1.94652014652015,33.8013525377028
1743371575323,17:52:55.323,79,-1,1847.61904761905,1.94652014652015,33.8013525377028
1743371575343,17:52:55.343,79,-1,1821.97802197802,1.94505494505494,33.8013525377028
1743371575362,17:52:55.362,79,-1,1789.74358974359,1.94505494505494,33.8013525377028
1743371575382,17:52:55.382,79,-1,1737.72893772894,1.94358974358974,33.8013525377028
1743371575401,17:52:55.401,79,-1,1679.85347985348,1.94212454212454,33.8013525377028
1743371575421,17:52:55.421,79,-1,1627.10622710623,1.94212454212454,33.8013525377028
1743371575440,17:52:55.440,79,-1,1572.89377289377,1.94212454212454,33.8013525377028
1743371575460,17:52:55.460,79,-1,1528.20512820513,1.94212454212454,33.8013525377028
1743371575479,17:52:55.479,79,-1,1513.55311355311,1.94212454212454,33.8013525377028
1743371575499,17:52:55.499,79,-1,1509.89010989011,1.94065934065934,33.8013525377028
1743371575518,17:52:55.518,79,-1,1501.8315018315,1.94212454212454,33.8163612185745
1743371575538,17:52:55.538,68,-1,1481.31868131868,1.94065934065934,33.8163612185745
1743371575557,17:52:55.557,68,-1,1471.06227106227,1.94212454212454,33.8163612185745
1743371575577,17:52:55.577,68,-1,1469.59706959707,1.94065934065934,33.8163612185745
1743371575596,17:52:55.596,68,-1,1443.95604395604,1.94065934065934,33.8163612185745
1743371575616,17:52:55.616,68,-1,1400.7326007326,1.94065934065934,33.8163612185745
1743371575635,17:52:55.635,68,-1,1364.83516483516,1.94065934065934,33.8163612185745
1743371575655,17:52:55.655,68,-1,1330.40293040293,1.94065934065934,33.8163612185745
1743371575674,17:52:55.674,68,-1,1297.4358974359,1.94065934065934,33.8163612185745
1743371575694,17:52:55.694,68,-1,1260.80586080586,1.94065934065934,33.8163612185745
1743371575713,17:52:55.713,68,-1,1243.22344322344,1.94065934065934,33.8163612185745
1743371575733,17:52:55.733,68,-1,1234.43223443223,1.94065934065934,33.8163612185745
1743371575752,17:52:55.752,68,-1,1219.78021978022,1.94065934065934,33.8163612185745
1743371575772,17:52:55.772,68,-1,1211.72161172161,1.94065934065934,33.8163612185745
1743371575791,17:52:55.791,68,-1,1198.5347985348,1.94065934065934,33.8163612185745
1743371575811,17:52:55.811,68,-1,1179.48717948718,1.94065934065934,33.8163612185745
1743371575830,17:52:55.830,68,-1,1174.35897435897,1.93919413919414,33.8163612185745
1743371575850,17:52:55.850,68,-1,1169.96336996337,1.94065934065934,33.8163612185745
1743371575869,17:52:55.869,68,-1,1160.43956043956,1.93919413919414,33.8163612185745
1743371575889,17:52:55.889,68,-1,1145.78754578755,1.93919413919414,33.8163612185745
1743371575908,17:52:55.908,68,-1,1142.85714285714,1.93919413919414,33.8163612185745
1743371575928,17:52:55.928,68,-1,1136.99633699634,1.93919413919414,33.8163612185745
1743371575947,17:52:55.947,68,-1,1131.86813186813,1.93919413919414,33.8163612185745
1743371575967,17:52:55.967,68,-1,1120.87912087912,1.93919413919414,33.8163612185745
1743371575986,17:52:55.986,68,-1,1104.7619047619,1.93919413919414,33.8163612185745
1743371576006,17:52:56.006,68,-1,1088.64468864469,1.93772893772894,33.8163612185745
1743371576025,17:52:56.025,68,-1,1079.12087912088,1.93772893772894,33.8163612185745
1743371576045,17:52:56.045,68,-1,1083.51648351648,1.93919413919414,33.8163612185745
1743371576064,17:52:56.064,68,-1,1094.50549450549,1.93772893772894,33.8163612185745
1743371576084,17:52:56.084,68,-1,1112.82051282051,1.93772893772894,33.8163612185745
1743371576103,17:52:56.103,68,-1,1195.6043956044,1.93626373626374,33.8163612185745
1743371576123,17:52:56.123,68,-1,1317.21611721612,1.93626373626374,33.8163612185745
1743371576142,17:52:56.142,68,-1,1438.09523809524,1.93626373626374,33.8163612185745
1743371576162,17:52:56.162,68,-1,1552.38095238095,1.93626373626374,33.8163612185745
1743371576181,17:52:56.181,68,-1,1646.88644688645,1.93772893772894,33.8163612185745
1743371576201,17:52:56.201,68,-1,1696.7032967033,1.93626373626374,33.8163612185745
1743371576220,17:52:56.220,68,-1,1708.42490842491,1.93626373626374,33.8163612185745
1743371576240,17:52:56.240,68,-1,1696.7032967033,1.93626373626374,33.8163612185745
1743371576259,17:52:56.259,68,-1,1681.31868131868,1.93626373626374,33.8163612185745
1743371576279,17:52:56.279,68,-1,1672.52747252747,1.93626373626374,33.8163612185745
1743371576298,17:52:56.298,68,-1,1665.20146520146,1.93479853479853,33.8163612185745
1743371576318,17:52:56.318,68,-1,1646.15384615385,1.93479853479853,33.8163612185745
1743371576337,17:52:56.337,68,-1,1600.7326007326,1.93479853479853,33.8163612185745
1743371576357,17:52:56.357,68,-1,1539.92673992674,1.93479853479853,33.8163612185745
1743371576376,17:52:56.376,68,-1,1485.71428571429,1.93479853479853,33.8163612185745
1743371576396,17:52:56.396,68,-1,1454.21245421245,1.93479853479853,33.8163612185745
1743371576415,17:52:56.415,68,-1,1431.50183150183,1.93333333333333,33.8163612185745
1743371576435,17:52:56.435,63,-1,1416.84981684982,1.93333333333333,33.8163612185745
1743371576454,17:52:56.454,63,-1,1401.4652014652,1.93333333333333,33.8163612185745
1743371576474,17:52:56.474,63,-1,1394.87179487179,1.93333333333333,33.8163612185745
1743371576493,17:52:56.493,63,-1,1394.87179487179,1.93479853479853,33.8163612185745
1743371576513,17:52:56.513,63,-1,1382.41758241758,1.93333333333333,33.8163612185745
1743371576532,17:52:56.532,63,-1,1359.70695970696,1.93333333333333,33.8163612185745
1743371576552,17:52:56.552,63,-1,1340.65934065934,1.93333333333333,33.8163612185745
1743371576571,17:52:56.571,63,-1,1316.48351648352,1.93333333333333,33.8163612185745
1743371576591,17:52:56.591,63,-1,1282.78388278388,1.93186813186813,33.8163612185745
1743371576610,17:52:56.610,63,-1,1259.34065934066,1.93333333333333,33.8163612185745
1743371576630,17:52:56.630,63,-1,1245.42124542125,1.93186813186813,33.8163612185745
1743371576649,17:52:56.649,63,-1,1221.97802197802,1.93186813186813,33.8163612185745
1743371576669,17:52:56.669,63,-1,1200.7326007326,1.93186813186813,33.8163612185745
1743371576688,17:52:56.688,63,-1,1186.08058608059,1.93186813186813,33.8163612185745
1743371576708,17:52:56.708,63,-1,1184.61538461538,1.93186813186813,33.8163612185745
1743371576727,17:52:56.727,63,-1,1185.34798534799,1.93186813186813,33.8163612185745
1743371576747,17:52:56.747,63,-1,1186.81318681319,1.93040293040293,33.8163612185745
1743371576766,17:52:56.766,63,-1,1190.47619047619,1.93040293040293,33.8163612185745
1743371576786,17:52:56.786,63,-1,1175.82417582418,1.93040293040293,33.8163612185745
1743371576805,17:52:56.805,63,-1,1136.99633699634,1.93040293040293,33.8163612185745
1743371576825,17:52:56.825,63,-1,1128.20512820513,1.93040293040293,33.8163612185745
1743371576844,17:52:56.844,63,-1,1127.47252747253,1.93040293040293,33.8163612185745
1743371576864,17:52:56.864,63,-1,1128.93772893773,1.93040293040293,33.8163612185745
1743371576883,17:52:56.883,63,-1,1139.19413919414,1.93040293040293,33.8163612185745
1743371576903,17:52:56.903,63,-1,1139.19413919414,1.92893772893773,33.8163612185745
1743371576922,17:52:56.922,63,-1,1120.14652014652,1.92893772893773,33.8163612185745
1743371576942,17:52:56.942,63,-1,1096.7032967033,1.92893772893773,33.8163612185745
1743371576961,17:52:56.961,63,-1,1080.58608058608,1.92893772893773,33.8163612185745
1743371576981,17:52:56.981,63,-1,1106.22710622711,1.92893772893773,33.8163612185745
1743371577000,17:52:57.000,63,-1,1183.88278388278,1.92893772893773,33.8163612185745
1743371577020,17:52:57.020,63,-1,1296.7032967033,1.92893772893773,33.8163612185745
1743371577039,17:52:57.039,63,-1,1410.25641025641,1.92893772893773,33.8163612185745
1743371577059,17:52:57.059,63,-1,1519.41391941392,1.92893772893773,33.8163612185745
1743371577078,17:52:57.078,63,-1,1602.9304029304,1.92893772893773,33.8163612185745
1743371577098,17:52:57.098,63,-1,1646.15384615385,1.92893772893773,33.8163612185745
1743371577117,17:52:57.117,63,-1,1668.86446886447,1.92747252747253,33.8163612185745
1743371577137,17:52:57.137,63,-1,1673.26007326007,1.92893772893773,33.8163612185745
1743371577156,17:52:57.156,63,-1,1660.07326007326,1.92893772893773,33.8163612185745
1743371577176,17:52:57.176,63,-1,1624.90842490842,1.92893772893773,33.8163612185745
1743371577195,17:52:57.195,63,-1,1589.74358974359,1.92893772893773,33.8163612185745
1743371577215,17:52:57.215,63,-1,1562.63736263736,1.92893772893773,33.8163612185745
1743371577234,17:52:57.234,63,-1,1518.68131868132,1.92893772893773,33.8163612185745
1743371577254,17:52:57.254,63,-1,1474.72527472527,1.92893772893773,33.8163612185745
1743371577273,17:52:57.273,63,-1,1439.56043956044,1.92893772893773,33.8163612185745
1743371577293,17:52:57.293,63,-1,1400.7326007326,1.92893772893773,33.8163612185745
1743371577312,17:52:57.312,67,-1,1389.74358974359,1.93040293040293,33.8163612185745
1743371577332,17:52:57.332,67,-1,1393.40659340659,1.93040293040293,33.8163612185745
1743371577351,17:52:57.351,67,-1,1381.68498168498,1.93040293040293,33.8163612185745
1743371577371,17:52:57.371,67,-1,1383.15018315018,1.93040293040293,33.8163612185745
1743371577390,17:52:57.390,67,-1,1369.96336996337,1.93040293040293,33.8163612185745
1743371577410,17:52:57.410,67,-1,1363.36996336996,1.93040293040293,33.8163612185745
1743371577429,17:52:57.429,67,-1,1358.24175824176,1.93040293040293,33.8163612185745
1743371577449,17:52:57.449,67,-1,1341.39194139194,1.93040293040293,33.8163612185745
1743371577468,17:52:57.468,67,-1,1314.28571428571,1.93040293040293,33.8163612185745
1743371577488,17:52:57.488,67,-1,1287.17948717949,1.92893772893773,33.8163612185745
1743371577507,17:52:57.507,67,-1,1260.07326007326,1.92893772893773,33.8163612185745
1743371577527,17:52:57.527,67,-1,1238.82783882784,1.92893772893773,33.8163612185745
1743371577546,17:52:57.546,67,-1,1222.71062271062,1.93040293040293,33.8163612185745
1743371577566,17:52:57.566,67,-1,1205.86080586081,1.93040293040293,33.8163612185745
1743371577585,17:52:57.585,67,-1,1190.47619047619,1.93040293040293,33.8163612185745
1743371577605,17:52:57.605,67,-1,1186.08058608059,1.93040293040293,33.8163612185745
1743371577624,17:52:57.624,67,-1,1181.68498168498,1.93040293040293,33.8163612185745
1743371577644,17:52:57.644,67,-1,1168.49816849817,1.93040293040293,33.8163612185745
1743371577663,17:52:57.663,67,-1,1152.38095238095,1.93040293040293,33.8163612185745
1743371577683,17:52:57.683,67,-1,1150.18315018315,1.92893772893773,33.8163612185745
1743371577702,17:52:57.702,67,-1,1144.32234432234,1.92893772893773,33.8163612185745
1743371577722,17:52:57.722,67,-1,1125.27472527473,1.92893772893773,33.8163612185745
1743371577741,17:52:57.741,67,-1,1102.5641025641,1.92893772893773,33.8163612185745
1743371577761,17:52:57.761,67,-1,1089.37728937729,1.92893772893773,33.8163612185745
1743371577780,17:52:57.780,67,-1,1093.04029304029,1.92747252747253,33.8163612185745
1743371577800,17:52:57.800,67,-1,1112.82051282051,1.92747252747253,33.8163612185745
1743371577819,17:52:57.819,67,-1,1150.18315018315,1.92747252747253,33.8163612185745
1743371577839,17:52:57.839,67,-1,1238.09523809524,1.92747252747253,33.8163612185745
1743371577858,17:52:57.858,67,-1,1349.45054945055,1.92747252747253,33.8163612185745
1743371577878,17:52:57.878,67,-1,1461.53846153846,1.92747252747253,33.8163612185745
1743371577897,17:52:57.897,67,-1,1542.12454212454,1.92747252747253,33.8163612185745
1743371577917,17:52:57.917,67,-1,1583.88278388278,1.92747252747253,33.8163612185745
1743371577936,17:52:57.936,67,-1,1620.51282051282,1.92600732600733,33.8163612185745
1743371577956,17:52:57.956,67,-1,1648.35164835165,1.92600732600733,33.8163612185745
1743371577975,17:52:57.975,67,-1,1663.00366300366,1.92600732600733,33.8163612185745
1743371577995,17:52:57.995,67,-1,1667.39926739927,1.92600732600733,33.8163612185745
1743371578014,17:52:58.014,67,-1,1668.13186813187,1.92600732600733,33.8163612185745
1743371578034,17:52:58.034,67,-1,1649.81684981685,1.92454212454212,33.8163612185745
1743371578053,17:52:58.053,67,-1,1617.58241758242,1.92454212454212,33.8163612185745
1743371578073,17:52:58.073,67,-1,1587.54578754579,1.92454212454212,33.8163612185745
1743371578092,17:52:58.092,67,-1,1553.84615384615,1.92454212454212,33.8163612185745
1743371578112,17:52:58.112,67,-1,1508.42490842491,1.92454212454212,33.8163612185745
1743371578131,17:52:58.131,67,-1,1473.26007326007,1.92454212454212,33.8163612185745
1743371578151,17:52:58.151,67,-1,1443.95604395604,1.92454212454212,33.8163612185745
1743371578170,17:52:58.170,67,-1,1413.18681318681,1.92454212454212,33.8163612185745
1743371578190,17:52:58.190,67,-1,1395.6043956044,1.92307692307692,33.8163612185745
1743371578209,17:52:58.209,67,-1,1404.3956043956,1.92454212454212,33.8163612185745
1743371578229,17:52:58.229,67,-1,1406.59340659341,1.92454212454212,33.8163612185745
1743371578248,17:52:58.248,68,-1,1412.45421245421,1.92307692307692,33.8163612185745
1743371578268,17:52:58.268,68,-1,1405.12820512821,1.92307692307692,33.8163612185745
1743371578287,17:52:58.287,68,-1,1387.54578754579,1.92161172161172,33.8163612185745
1743371578307,17:52:58.307,68,-1,1354.57875457875,1.92161172161172,33.8163612185745
1743371578326,17:52:58.326,68,-1,1329.67032967033,1.92307692307692,33.8163612185745
1743371578346,17:52:58.346,68,-1,1317.94871794872,1.92161172161172,33.8163612185745
1743371578365,17:52:58.365,68,-1,1298.9010989011,1.92161172161172,33.8163612185745
1743371578385,17:52:58.385,68,-1,1280.58608058608,1.92161172161172,33.8163612185745
1743371578404,17:52:58.404,68,-1,1266.66666666667,1.92161172161172,33.8163612185745
1743371578424,17:52:58.424,68,-1,1249.08424908425,1.92161172161172,33.8163612185745
1743371578443,17:52:58.443,68,-1,1217.58241758242,1.92014652014652,33.8163612185745
1743371578463,17:52:58.463,68,-1,1203.663003663,1.92161172161172,33.8163612185745
1743371578482,17:52:58.482,68,-1,1208.79120879121,1.92161172161172,33.8163612185745
1743371578502,17:52:58.502,68,-1,1212.45421245421,1.92161172161172,33.8113583307713
1743371578521,17:52:58.521,68,-1,1205.86080586081,1.92161172161172,33.8113583307713
1743371578541,17:52:58.541,68,-1,1183.88278388278,1.92014652014652,33.8113583307713
1743371578560,17:52:58.560,68,-1,1169.23076923077,1.92014652014652,33.8113583307713
1743371578580,17:52:58.580,68,-1,1169.23076923077,1.92014652014652,33.8113583307713
1743371578599,17:52:58.599,68,-1,1170.69597069597,1.92014652014652,33.8113583307713
1743371578619,17:52:58.619,68,-1,1164.10256410256,1.92014652014652,33.8113583307713
1743371578638,17:52:58.638,68,-1,1155.31135531136,1.92014652014652,33.8113583307713
1743371578658,17:52:58.658,68,-1,1179.48717948718,1.92014652014652,33.8113583307713
1743371578677,17:52:58.677,68,-1,1244.68864468864,1.91868131868132,33.8113583307713
1743371578697,17:52:58.697,68,-1,1342.85714285714,1.91868131868132,33.8113583307713
1743371578716,17:52:58.716,68,-1,1445.42124542125,1.91868131868132,33.8113583307713
1743371578736,17:52:58.736,68,-1,1536.26373626374,1.91868131868132,33.8113583307713
1743371578755,17:52:58.755,68,-1,1605.86080586081,1.91721611721612,33.8113583307713
1743371578775,17:52:58.775,68,-1,1659.34065934066,1.91721611721612,33.8113583307713
1743371578794,17:52:58.794,68,-1,1700.3663003663,1.91721611721612,33.8113583307713
1743371578814,17:52:58.814,68,-1,1724.54212454212,1.91868131868132,33.8113583307713
1743371578833,17:52:58.833,68,-1,1735.53113553114,1.91721611721612,33.8113583307713
1743371578853,17:52:58.853,68,-1,1714.28571428571,1.91721611721612,33.8113583307713
1743371578872,17:52:58.872,68,-1,1687.91208791209,1.91721611721612,33.8113583307713
1743371578892,17:52:58.892,68,-1,1660.80586080586,1.91721611721612,33.8113583307713
1743371578911,17:52:58.911,68,-1,1635.16483516484,1.91721611721612,33.8113583307713
1743371578931,17:52:58.931,68,-1,1609.52380952381,1.91575091575092,33.8113583307713
1743371578950,17:52:58.950,68,-1,1564.83516483516,1.91575091575092,33.8113583307713
1743371578970,17:52:58.970,68,-1,1516.48351648352,1.91575091575092,33.8113583307713
1743371578989,17:52:58.989,68,-1,1488.64468864469,1.91575091575092,33.8113583307713
1743371579009,17:52:59.009,68,-1,1466.66666666667,1.91428571428571,33.8113583307713
1743371579028,17:52:59.028,68,-1,1446.15384615385,1.91428571428571,33.8113583307713
1743371579048,17:52:59.048,68,-1,1435.16483516484,1.91428571428571,33.8113583307713
1743371579067,17:52:59.067,68,-1,1422.71062271062,1.91428571428571,33.8113583307713
1743371579087,17:52:59.087,68,-1,1410.25641025641,1.91575091575092,33.8113583307713
1743371579106,17:52:59.106,68,-1,1397.8021978022,1.91721611721612,33.8113583307713
1743371579126,17:52:59.126,68,-1,1378.02197802198,1.91721611721612,33.8113583307713
1743371579145,17:52:59.145,68,-1,1355.31135531136,1.91721611721612,33.8113583307713
1743371579165,17:52:59.165,68,-1,1324.54212454212,1.91721611721612,33.8113583307713
1743371579184,17:52:59.184,68,-1,1298.1684981685,1.91721611721612,33.8113583307713
1743371579204,17:52:59.204,68,-1,1283.51648351648,1.91721611721612,33.8113583307713
1743371579223,17:52:59.223,64,-1,1282.05128205128,1.91721611721612,33.8113583307713
1743371579243,17:52:59.243,64,-1,1265.20146520147,1.91721611721612,33.8113583307713
1743371579262,17:52:59.262,64,-1,1241.75824175824,1.91721611721612,33.8113583307713
1743371579282,17:52:59.282,64,-1,1210.25641025641,1.91721611721612,33.8113583307713
1743371579301,17:52:59.301,64,-1,1195.6043956044,1.91575091575092,33.8113583307713
1743371579321,17:52:59.321,64,-1,1186.08058608059,1.91428571428571,33.8113583307713
1743371579340,17:52:59.340,64,-1,1197.0695970696,1.91428571428571,33.8113583307713
1743371579360,17:52:59.360,64,-1,1201.4652014652,1.91428571428571,33.8113583307713
1743371579379,17:52:59.379,64,-1,1197.8021978022,1.91428571428571,33.8113583307713
1743371579399,17:52:59.399,64,-1,1181.68498168498,1.91282051282051,33.8113583307713
1743371579418,17:52:59.418,64,-1,1171.42857142857,1.91282051282051,33.8113583307713
1743371579438,17:52:59.438,64,-1,1150.18315018315,1.91282051282051,33.8113583307713
1743371579457,17:52:59.457,64,-1,1134.06593406593,1.91135531135531,33.8113583307713
1743371579477,17:52:59.477,64,-1,1138.46153846154,1.91135531135531,33.8113583307713
1743371579496,17:52:59.496,64,-1,1162.63736263736,1.91135531135531,33.8063554371474
1743371579516,17:52:59.516,64,-1,1186.81318681319,1.90989010989011,33.8063554371474
1743371579535,17:52:59.535,64,-1,1200,1.91135531135531,33.8063554371474
1743371579555,17:52:59.555,64,-1,1227.10622710623,1.91135531135531,33.8063554371474
1743371579574,17:52:59.574,64,-1,1273.26007326007,1.91282051282051,33.8063554371474
1743371579594,17:52:59.594,64,-1,1363.36996336996,1.91282051282051,33.8063554371474
1743371579613,17:52:59.613,64,-1,1462.27106227106,1.91282051282051,33.8063554371474
1743371579633,17:52:59.633,64,-1,1536.99633699634,1.91282051282051,33.8063554371474
1743371579652,17:52:59.652,64,-1,1608.05860805861,1.91282051282051,33.8063554371474
1743371579672,17:52:59.672,64,-1,1654.94505494505,1.91282051282051,33.8063554371474
1743371579691,17:52:59.691,64,-1,1678.38827838828,1.91282051282051,33.8063554371474
1743371579711,17:52:59.711,64,-1,1689.37728937729,1.91282051282051,33.8063554371474
1743371579730,17:52:59.730,64,-1,1687.91208791209,1.91282051282051,33.8063554371474
1743371579750,17:52:59.750,64,-1,1680.58608058608,1.91282051282051,33.8063554371474
1743371579769,17:52:59.769,64,-1,1669.59706959707,1.91282051282051,33.8063554371474
1743371579789,17:52:59.789,64,-1,1649.81684981685,1.91428571428571,33.8063554371474
1743371579808,17:52:59.808,64,-1,1621.24542124542,1.91428571428571,33.8063554371474
1743371579828,17:52:59.828,64,-1,1571.42857142857,1.91428571428571,33.8063554371474
1743371579847,17:52:59.847,64,-1,1525.27472527473,1.91428571428571,33.8063554371474
1743371579867,17:52:59.867,64,-1,1488.64468864469,1.91428571428571,33.8063554371474
1743371579886,17:52:59.886,64,-1,1458.60805860806,1.91428571428571,33.8063554371474
1743371579906,17:52:59.906,64,-1,1442.49084249084,1.91428571428571,33.8063554371474
1743371579925,17:52:59.925,64,-1,1445.42124542125,1.91428571428571,33.8063554371474
1743371579945,17:52:59.945,64,-1,1443.22344322344,1.91428571428571,33.8063554371474
1743371579964,17:52:59.964,64,-1,1429.30402930403,1.91282051282051,33.8063554371474
1743371579984,17:52:59.984,64,-1,1416.11721611722,1.91428571428571,33.8063554371474
1743371580003,17:53:00.003,64,-1,1402.1978021978,1.91428571428571,33.8063554371474
1743371580023,17:53:00.023,64,-1,1375.09157509157,1.91428571428571,33.8063554371474
1743371580042,17:53:00.042,64,-1,1335.53113553114,1.91428571428571,33.8063554371474
1743371580062,17:53:00.062,64,-1,1304.0293040293,1.91575091575092,33.8063554371474
1743371580081,17:53:00.081,64,-1,1290.10989010989,1.91575091575092,33.8063554371474
1743371580101,17:53:00.101,64,-1,1275.45787545788,1.91575091575092,33.8063554371474
1743371580120,17:53:00.120,64,-1,1261.53846153846,1.91575091575092,33.8063554371474
1743371580140,17:53:00.140,64,-1,1252.01465201465,1.91575091575092,33.8063554371474
1743371580159,17:53:00.159,62,-1,1241.75824175824,1.91575091575092,33.8063554371474
1743371580179,17:53:00.179,62,-1,1235.89743589744,1.91575091575092,33.8063554371474
1743371580198,17:53:00.198,62,-1,1216.84981684982,1.91428571428571,33.8063554371474
1743371580218,17:53:00.218,62,-1,1191.20879120879,1.91428571428571,33.8063554371474
1743371580237,17:53:00.237,62,-1,1182.41758241758,1.91428571428571,33.8063554371474
1743371580257,17:53:00.257,62,-1,1180.95238095238,1.91575091575092,33.8063554371474
1743371580276,17:53:00.276,62,-1,1178.75457875458,1.91428571428571,33.8063554371474
1743371580296,17:53:00.296,62,-1,1164.10256410256,1.91575091575092,33.8063554371474
1743371580315,17:53:00.315,62,-1,1153.11355311355,1.91575091575092,33.8063554371474
1743371580335,17:53:00.335,62,-1,1152.38095238095,1.91428571428571,33.8063554371474
1743371580354,17:53:00.354,62,-1,1144.32234432234,1.91575091575092,33.8063554371474
1743371580374,17:53:00.374,62,-1,1145.78754578755,1.91575091575092,33.8063554371474
1743371580393,17:53:00.393,62,-1,1153.11355311355,1.91575091575092,33.8063554371474
1743371580413,17:53:00.413,62,-1,1147.98534798535,1.91575091575092,33.8063554371474
1743371580432,17:53:00.432,62,-1,1139.19413919414,1.91575091575092,33.8063554371474
1743371580452,17:53:00.452,62,-1,1145.78754578755,1.91721611721612,33.8063554371474
1743371580471,17:53:00.471,62,-1,1178.75457875458,1.91721611721612,33.8063554371474
1743371580491,17:53:00.491,62,-1,1255.67765567766,1.91575091575092,33.8163612185745
1743371580510,17:53:00.510,62,-1,1361.17216117216,1.91575091575092,33.8163612185745
1743371580530,17:53:00.530,62,-1,1454.94505494505,1.91575091575092,33.8163612185745
1743371580549,17:53:00.549,62,-1,1534.06593406593,1.91575091575092,33.8163612185745
1743371580569,17:53:00.569,62,-1,1594.13919413919,1.91575091575092,33.8163612185745
1743371580588,17:53:00.588,62,-1,1621.24542124542,1.91575091575092,33.8163612185745
1743371580608,17:53:00.608,62,-1,1630.76923076923,1.91575091575092,33.8163612185745
1743371580627,17:53:00.627,62,-1,1639.56043956044,1.91575091575092,33.8163612185745
1743371580647,17:53:00.647,62,-1,1630.76923076923,1.91575091575092,33.8163612185745
1743371580666,17:53:00.666,62,-1,1615.38461538462,1.91575091575092,33.8163612185745
1743371580686,17:53:00.686,62,-1,1601.4652014652,1.91575091575092,33.8163612185745
1743371580705,17:53:00.705,62,-1,1591.20879120879,1.91428571428571,33.8163612185745
1743371580725,17:53:00.725,62,-1,1565.56776556777,1.91575091575092,33.8163612185745
1743371580744,17:53:00.744,62,-1,1517.94871794872,1.91575091575092,33.8163612185745
1743371580764,17:53:00.764,62,-1,1482.05128205128,1.91428571428571,33.8163612185745
1743371580783,17:53:00.783,62,-1,1454.94505494505,1.91428571428571,33.8163612185745
1743371580803,17:53:00.803,62,-1,1435.16483516484,1.91428571428571,33.8163612185745
1743371580822,17:53:00.822,62,-1,1419.78021978022,1.91428571428571,33.8163612185745
1743371580842,17:53:00.842,62,-1,1397.8021978022,1.91428571428571,33.8163612185745
1743371580861,17:53:00.861,62,-1,1387.54578754579,1.91282051282051,33.8163612185745
1743371580881,17:53:00.881,62,-1,1370.69597069597,1.91428571428571,33.8163612185745
1743371580900,17:53:00.900,62,-1,1352.38095238095,1.91282051282051,33.8163612185745
1743371580920,17:53:00.920,62,-1,1326.73992673993,1.91135531135531,33.8163612185745
1743371580939,17:53:00.939,62,-1,1313.55311355311,1.91282051282051,33.8163612185745
1743371580959,17:53:00.959,62,-1,1295.9706959707,1.91135531135531,33.8163612185745
1743371580978,17:53:00.978,62,-1,1290.10989010989,1.91282051282051,33.8163612185745
1743371580998,17:53:00.998,62,-1,1284.98168498168,1.91135531135531,33.8163612185745
1743371581017,17:53:01.017,62,-1,1265.93406593407,1.91135531135531,33.8163612185745
1743371581037,17:53:01.037,62,-1,1242.49084249084,1.91135531135531,33.8163612185745
1743371581056,17:53:01.056,64,-1,1210.98901098901,1.91135531135531,33.8163612185745
1743371581076,17:53:01.076,64,-1,1191.94139194139,1.91135531135531,33.8163612185745
1743371581095,17:53:01.095,64,-1,1186.08058608059,1.91135531135531,33.8163612185745
1743371581115,17:53:01.115,64,-1,1179.48717948718,1.91135531135531,33.8163612185745
1743371581134,17:53:01.134,64,-1,1171.42857142857,1.90989010989011,33.8163612185745
1743371581154,17:53:01.154,64,-1,1162.63736263736,1.90989010989011,33.8163612185745
1743371581173,17:53:01.173,64,-1,1155.31135531136,1.90842490842491,33.8163612185745
1743371581193,17:53:01.193,64,-1,1148.71794871795,1.90842490842491,33.8163612185745
1743371581212,17:53:01.212,64,-1,1144.32234432234,1.90842490842491,33.8163612185745
1743371581232,17:53:01.232,64,-1,1164.10256410256,1.90695970695971,33.8163612185745
1743371581251,17:53:01.251,64,-1,1173.62637362637,1.90695970695971,33.8163612185745
1743371581271,17:53:01.271,64,-1,1162.63736263736,1.90695970695971,33.8163612185745
1743371581290,17:53:01.290,64,-1,1135.53113553114,1.90695970695971,33.8163612185745
1743371581310,17:53:01.310,64,-1,1121.61172161172,1.90695970695971,33.8163612185745
1743371581329,17:53:01.329,64,-1,1125.27472527473,1.90695970695971,33.8163612185745
1743371581349,17:53:01.349,64,-1,1150.18315018315,1.90695970695971,33.8163612185745
1743371581368,17:53:01.368,64,-1,1191.20879120879,1.90695970695971,33.8163612185745
1743371581388,17:53:01.388,64,-1,1252.74725274725,1.90695970695971,33.8163612185745
1743371581407,17:53:01.407,64,-1,1337.72893772894,1.90695970695971,33.8163612185745
1743371581427,17:53:01.427,64,-1,1432.96703296703,1.90695970695971,33.8163612185745
1743371581446,17:53:01.446,64,-1,1498.1684981685,1.90695970695971,33.8163612185745
1743371581466,17:53:01.466,64,-1,1557.50915750916,1.90695970695971,33.8163612185745
1743371581485,17:53:01.485,64,-1,1602.9304029304,1.9054945054945,33.8113583307713
1743371581505,17:53:01.505,64,-1,1622.71062271062,1.90695970695971,33.8113583307713
1743371581524,17:53:01.524,64,-1,1620.51282051282,1.90695970695971,33.8113583307713
1743371581544,17:53:01.544,64,-1,1621.24542124542,1.90695970695971,33.8113583307713
1743371581563,17:53:01.563,64,-1,1626.37362637363,1.9054945054945,33.8113583307713
1743371581583,17:53:01.583,64,-1,1620.51282051282,1.9054945054945,33.8113583307713
1743371581602,17:53:01.602,64,-1,1616.84981684982,1.9054945054945,33.8113583307713
1743371581622,17:53:01.622,64,-1,1594.87179487179,1.9054945054945,33.8113583307713
1743371581641,17:53:01.641,64,-1,1558.24175824176,1.9054945054945,33.8113583307713
1743371581661,17:53:01.661,64,-1,1516.48351648352,1.9054945054945,33.8113583307713
1743371581680,17:53:01.680,64,-1,1478.38827838828,1.9040293040293,33.8113583307713
1743371581700,17:53:01.700,64,-1,1457.87545787546,1.9040293040293,33.8113583307713
1743371581719,17:53:01.719,64,-1,1442.49084249084,1.9040293040293,33.8113583307713
1743371581739,17:53:01.739,64,-1,1426.37362637363,1.9054945054945,33.8113583307713
1743371581758,17:53:01.758,64,-1,1420.51282051282,1.9040293040293,33.8113583307713
1743371581778,17:53:01.778,64,-1,1413.91941391941,1.9040293040293,33.8113583307713
1743371581797,17:53:01.797,64,-1,1406.59340659341,1.9040293040293,33.8113583307713
1743371581817,17:53:01.817,64,-1,1395.6043956044,1.9040293040293,33.8113583307713
1743371581836,17:53:01.836,64,-1,1377.28937728938,1.9040293040293,33.8113583307713
1743371581856,17:53:01.856,64,-1,1350.18315018315,1.9054945054945,33.8113583307713
1743371581875,17:53:01.875,64,-1,1326.73992673993,1.9054945054945,33.8113583307713
1743371581895,17:53:01.895,67,-1,1306.22710622711,1.9040293040293,33.8113583307713
1743371581914,17:53:01.914,67,-1,1284.98168498168,1.9040293040293,33.8113583307713
1743371581934,17:53:01.934,67,-1,1257.87545787546,1.9040293040293,33.8113583307713
1743371581953,17:53:01.953,67,-1,1235.16483516484,1.9025641025641,33.8113583307713
1743371581973,17:53:01.973,67,-1,1219.78021978022,1.9025641025641,33.8113583307713
1743371581992,17:53:01.992,67,-1,1213.18681318681,1.9025641025641,33.8113583307713
1743371582012,17:53:02.012,67,-1,1202.9304029304,1.9025641025641,33.8113583307713
1743371582031,17:53:02.031,67,-1,1205.86080586081,1.9054945054945,33.8113583307713
1743371582051,17:53:02.051,67,-1,1219.78021978022,1.9054945054945,33.8113583307713
1743371582070,17:53:02.070,67,-1,1209.52380952381,1.90695970695971,33.8113583307713
1743371582090,17:53:02.090,67,-1,1194.87179487179,1.90695970695971,33.8113583307713
1743371582109,17:53:02.109,67,-1,1196.336996337,1.90695970695971,33.8113583307713
1743371582129,17:53:02.129,67,-1,1198.5347985348,1.90695970695971,33.8113583307713
1743371582148,17:53:02.148,67,-1,1185.34798534799,1.90695970695971,33.8113583307713
1743371582168,17:53:02.168,67,-1,1181.68498168498,1.90695970695971,33.8113583307713
1743371582187,17:53:02.187,67,-1,1210.98901098901,1.90695970695971,33.8113583307713
1743371582207,17:53:02.207,67,-1,1290.10989010989,1.90695970695971,33.8113583307713
1743371582226,17:53:02.226,67,-1,1387.54578754579,1.90695970695971,33.8113583307713
1743371582246,17:53:02.246,67,-1,1482.78388278388,1.90695970695971,33.8113583307713
1743371582265,17:53:02.265,67,-1,1558.24175824176,1.90695970695971,33.8113583307713
1743371582285,17:53:02.285,67,-1,1612.45421245421,1.9054945054945,33.8113583307713
1743371582304,17:53:02.304,67,-1,1639.56043956044,1.9054945054945,33.8113583307713
1743371582324,17:53:02.324,67,-1,1658.60805860806,1.9054945054945,33.8113583307713
1743371582343,17:53:02.343,67,-1,1673.99267399267,1.9040293040293,33.8113583307713
1743371582363,17:53:02.363,67,-1,1683.51648351648,1.9025641025641,33.8113583307713
1743371582382,17:53:02.382,67,-1,1685.71428571429,1.9025641025641,33.8113583307713
1743371582402,17:53:02.402,67,-1,1695.9706959707,1.9040293040293,33.8113583307713
1743371582421,17:53:02.421,67,-1,1684.24908424908,1.9040293040293,33.8113583307713
1743371582441,17:53:02.441,67,-1,1641.75824175824,1.9040293040293,33.8113583307713
1743371582460,17:53:02.460,67,-1,1596.336996337,1.9040293040293,33.8113583307713
1743371582480,17:53:02.480,67,-1,1562.63736263736,1.9054945054945,33.8113583307713
1743371582499,17:53:02.499,67,-1,1546.52014652015,1.9040293040293,33.8113583307713
1743371582519,17:53:02.519,67,-1,1531.86813186813,1.9040293040293,33.8113583307713
1743371582538,17:53:02.538,67,-1,1505.49450549451,1.9040293040293,33.8113583307713
1743371582558,17:53:02.558,67,-1,1477.65567765568,1.9040293040293,33.8113583307713
1743371582577,17:53:02.577,67,-1,1452.74725274725,1.9040293040293,33.8113583307713
1743371582597,17:53:02.597,67,-1,1419.78021978022,1.9040293040293,33.8113583307713
1743371582616,17:53:02.616,67,-1,1393.40659340659,1.9040293040293,33.8113583307713
1743371582636,17:53:02.636,67,-1,1375.09157509157,1.9025641025641,33.8113583307713
1743371582655,17:53:02.655,67,-1,1361.90476190476,1.9040293040293,33.8113583307713
1743371582675,17:53:02.675,67,-1,1353.11355311355,1.9025641025641,33.8113583307713
1743371582694,17:53:02.694,67,-1,1330.40293040293,1.9025641025641,33.8113583307713
1743371582714,17:53:02.714,67,-1,1288.64468864469,1.9025641025641,33.8113583307713
1743371582733,17:53:02.733,67,-1,1266.66666666667,1.9025641025641,33.8113583307713
1743371582753,17:53:02.753,72,-1,1262.27106227106,1.9025641025641,33.8113583307713
1743371582772,17:53:02.772,72,-1,1260.80586080586,1.9025641025641,33.8113583307713
1743371582792,17:53:02.792,72,-1,1257.87545787546,1.9025641025641,33.8113583307713
1743371582811,17:53:02.811,72,-1,1244.68864468864,1.9010989010989,33.8113583307713
1743371582831,17:53:02.831,72,-1,1230.76923076923,1.9010989010989,33.8113583307713
1743371582850,17:53:02.850,72,-1,1234.43223443223,1.8996336996337,33.8113583307713
1743371582870,17:53:02.870,72,-1,1235.89743589744,1.8996336996337,33.8113583307713
1743371582889,17:53:02.889,72,-1,1240.29304029304,1.8996336996337,33.8113583307713
1743371582909,17:53:02.909,72,-1,1234.43223443223,1.8981684981685,33.8113583307713
1743371582928,17:53:02.928,72,-1,1222.71062271062,1.8981684981685,33.8113583307713
1743371582948,17:53:02.948,72,-1,1202.9304029304,1.8981684981685,33.8113583307713
1743371582967,17:53:02.967,72,-1,1194.87179487179,1.8981684981685,33.8113583307713
1743371582987,17:53:02.987,72,-1,1197.0695970696,1.8981684981685,33.8113583307713
1743371583006,17:53:03.006,72,-1,1197.8021978022,1.8981684981685,33.8113583307713
1743371583026,17:53:03.026,72,-1,1192.67399267399,1.8981684981685,33.8113583307713
1743371583045,17:53:03.045,72,-1,1206.59340659341,1.8967032967033,33.8113583307713
1743371583065,17:53:03.065,72,-1,1265.93406593407,1.8967032967033,33.8113583307713
1743371583084,17:53:03.084,72,-1,1350.91575091575,1.8967032967033,33.8113583307713
1743371583104,17:53:03.104,72,-1,1453.47985347985,1.8967032967033,33.8113583307713
1743371583123,17:53:03.123,72,-1,1549.45054945055,1.8967032967033,33.8113583307713
1743371583143,17:53:03.143,72,-1,1625.64102564103,1.89523809523809,33.8113583307713
1743371583162,17:53:03.162,72,-1,1683.51648351648,1.89523809523809,33.8113583307713
1743371583182,17:53:03.182,72,-1,1708.42490842491,1.89523809523809,33.8113583307713
1743371583201,17:53:03.201,72,-1,1713.55311355311,1.89523809523809,33.8113583307713
1743371583221,17:53:03.221,72,-1,1720.87912087912,1.89523809523809,33.8113583307713
1743371583240,17:53:03.240,72,-1,1726.73992673993,1.89523809523809,33.8113583307713
1743371583260,17:53:03.260,72,-1,1718.68131868132,1.89523809523809,33.8113583307713
1743371583279,17:53:03.279,72,-1,1701.0989010989,1.89523809523809,33.8113583307713
1743371583299,17:53:03.299,72,-1,1674.72527472527,1.89377289377289,33.8113583307713
1743371583318,17:53:03.318,72,-1,1640.29304029304,1.89377289377289,33.8113583307713
1743371583338,17:53:03.338,72,-1,1598.5347985348,1.89377289377289,33.8113583307713
1743371583357,17:53:03.357,72,-1,1564.10256410256,1.89523809523809,33.8113583307713
1743371583377,17:53:03.377,72,-1,1536.26373626374,1.89377289377289,33.8113583307713
1743371583396,17:53:03.396,72,-1,1506.95970695971,1.89523809523809,33.8113583307713
1743371583416,17:53:03.416,72,-1,1490.84249084249,1.89377289377289,33.8113583307713
1743371583435,17:53:03.435,72,-1,1479.12087912088,1.89377289377289,33.8113583307713
1743371583455,17:53:03.455,72,-1,1465.20146520146,1.89377289377289,33.8113583307713
1743371583474,17:53:03.474,72,-1,1446.15384615385,1.89377289377289,33.8063554371474
1743371583494,17:53:03.494,72,-1,1435.16483516484,1.89377289377289,33.8063554371474
1743371583513,17:53:03.513,72,-1,1421.24542124542,1.89377289377289,33.8063554371474
1743371583533,17:53:03.533,72,-1,1398.5347985348,1.89377289377289,33.8063554371474
1743371583552,17:53:03.552,72,-1,1378.02197802198,1.89377289377289,33.8063554371474
1743371583572,17:53:03.572,72,-1,1362.63736263736,1.89377289377289,33.8063554371474
1743371583591,17:53:03.591,72,-1,1349.45054945055,1.89377289377289,33.8063554371474
1743371583611,17:53:03.611,72,-1,1324.54212454212,1.89377289377289,33.8063554371474
1743371583630,17:53:03.630,72,-1,1304.7619047619,1.89230769230769,33.8063554371474
1743371583650,17:53:03.650,70,-1,1290.84249084249,1.89230769230769,33.8063554371474
1743371583669,17:53:03.669,70,-1,1262.27106227106,1.89377289377289,33.8063554371474
1743371583689,17:53:03.689,70,-1,1236.63003663004,1.89230769230769,33.8063554371474
1743371583708,17:53:03.708,70,-1,1239.56043956044,1.89230769230769,33.8063554371474
1743371583728,17:53:03.728,70,-1,1251.28205128205,1.89230769230769,33.8063554371474
1743371583747,17:53:03.747,70,-1,1249.81684981685,1.89230769230769,33.8063554371474
1743371583767,17:53:03.767,70,-1,1230.76923076923,1.89377289377289,33.8063554371474
1743371583786,17:53:03.786,70,-1,1216.11721611722,1.89377289377289,33.8063554371474
1743371583806,17:53:03.806,70,-1,1205.12820512821,1.89377289377289,33.8063554371474
1743371583825,17:53:03.825,70,-1,1195.6043956044,1.89377289377289,33.8063554371474
1743371583845,17:53:03.845,70,-1,1197.8021978022,1.89377289377289,33.8063554371474
1743371583864,17:53:03.864,70,-1,1208.05860805861,1.89377289377289,33.8063554371474
1743371583884,17:53:03.884,70,-1,1232.23443223443,1.89377289377289,33.8063554371474
1743371583903,17:53:03.903,70,-1,1274.72527472527,1.89377289377289,33.8063554371474
1743371583923,17:53:03.923,70,-1,1364.10256410256,1.89377289377289,33.8063554371474
1743371583942,17:53:03.942,70,-1,1463.73626373626,1.89377289377289,33.8063554371474
